Zeit[sec];Sollposition[°];Istposition[°];Positionsschleppfehler[°];Sollgeschwindigkeit[°/s];Istgeschwindigkeit[°/s];Geschwindigkeitsdifferenz[°/s];Sollbeschleunigung[°/s*s];Istbeschleunigung[°/s*s];Beschleunigungsdifferenz[°/s*s]
0.0;9817499999.0;9817500002.0;-3.0;0.0;-0.00017999999999999998;0.0;0.0;0.0;0.0
0.004;9817499999.0;9817500002.0;-3.0;0.0;-0.00017999999999999998;0.0;0.0;0.0;0.0
0.008;9817499999.0;9817500002.0;-3.0;0.0;-0.00017999999999999998;0.0;0.0;0.0;0.0
0.012;9817499999.0;9817500002.0;-3.0;0.0;-0.00017999999999999998;0.0;0.0;0.0;0.0
0.016;9817499999.0;9817500002.0;-3.0;0.0;-0.00017999999999999998;0.0;0.0;0.0;0.0
0.02;9817499999.0;9817500002.0;-3.0;0.0;-0.00017999999999999998;0.0;0.0;0.0;0.0
0.024;9817499999.0;9817500002.0;-3.0;0.0;-0.00017999999999999998;0.0;0.0;0.0;0.0
0.028;9817499999.0;9817500002.0;-3.0;0.0;-0.00017999999999999998;0.0;0.0;0.0;0.0
0.032;9817499999.0;9817500002.0;-3.0;0.0;-0.00017999999999999998;0.0;0.0;0.0;0.0
0.036000000000000004;9817499999.0;9817500002.0;-3.0;0.0;-0.00017999999999999998;0.0;0.0;0.0;0.0
0.04000000000000001;9817499999.0;9817500002.0;-3.0;0.0;-0.00017999999999999998;0.0;0.0;0.0;0.0
0.04400000000000001;9817499999.0;9817500002.0;-3.0;0.0;-0.00017999999999999998;0.0;0.0;0.0;0.0
0.048000000000000015;9817499999.0;9817500002.0;-3.0;0.0;-0.00017999999999999998;0.0;0.0;0.0;0.0
0.05200000000000002;9817499999.0;9817500002.0;-3.0;0.0;-0.00017999999999999998;0.0;0.0;0.0;0.0
0.05600000000000002;9817499999.0;9817500002.0;-3.0;0.0;-0.00017999999999999998;0.0;0.0;0.0;0.0
0.060000000000000026;9817499999.0;9817500002.0;-3.0;0.0;-0.00017999999999999998;0.0;0.0;0.0;0.0
0.06400000000000003;9817499999.0;9817500002.0;-3.0;0.0;-0.00017999999999999998;0.0;0.0;0.0;0.0
0.06800000000000003;9817500113.0;9817500002.0;-3.0;0.02829035196962707;-0.00017999999999999998;0.0;7.072587992406768;0.0;7.072587992406768
0.07200000000000004;9817501240.0;9817500002.0;111.0;0.2819323874768706;-0.00017999999999999998;0.03513035196962707;63.41050887681088;0.0;63.41050887681088
0.07600000000000004;9817626756.0;9817500141.0;1099.0;31.37890552976725;0.03495035196962707;0.3129220355072435;7774.243285572595;0.0;7774.243285572595
0.08000000000000004;9817815427.0;9817501532.0;125224.0;47.167720438988624;0.3478723874768706;38.54447314229038;3947.203727305344;0.0;3947.203727305344
0.08400000000000005;9818125032.0;9817657101.0;158326.0;77.40126489070869;38.89234552976725;17.77493490922138;7558.386112930016;83.33333333333333;7475.052779596683
0.08800000000000005;9818550082.0;9817883770.0;241262.0;106.26259131330026;56.66728043898863;35.20970445172006;7215.331605647893;166.66666666666666;7048.664938981226
0.09200000000000005;9819078063.0;9818251277.0;298805.0;131.99508546894128;91.87698489070868;32.31390642259157;6433.123538910255;416.6666666666667;6016.456872243589
0.09600000000000006;9819721421.0;9818748040.0;330023.0;160.8396354645822;124.19089131330026;27.605574155641023;7211.137498910226;666.6666666666666;6544.470832243559
0.10000000000000006;9820509407.0;9819355225.0;366196.0;196.99631447522222;151.79646546894128;31.014929995640898;9039.16975266001;1000.0;8039.169752660008
0.10400000000000006;9821453279.0;9820086470.0;422937.0;235.9681976344093;182.81139546458218;39.561139010640034;9742.970789796771;1250.0;8492.970789796771
0.10800000000000007;9822533982.0;9820975960.0;477319.0;270.17551683642796;222.3725344752222;42.234803159187095;8551.829800504664;1500.0;7051.829800504664
0.11200000000000007;9823740022.0;9822034389.0;499593.0;301.51013387955817;264.6073376344093;35.543759202018634;7833.654260782552;1750.0;6083.654260782552
0.11600000000000008;9825072425.0;9823234993.0;505029.0;333.1006235460697;300.15109683642794;31.660777043130224;7897.622416627883;2000.0;5897.622416627883
0.12000000000000008;9826517115.0;9824562240.0;510185.0;361.1725510653515;331.81187387955816;31.899849666511557;7017.981879820453;2333.3333333333335;4684.64854648712
0.12400000000000008;9828065307.0;9826017086.0;500029.0;387.04790286912885;363.7117235460697;27.462567519281777;6468.837950944334;2583.3333333333335;3885.504617611
0.12800000000000009;9829730547.0;9827581783.0;483524.0;416.30994743646875;391.1742910653515;24.885051803777344;7315.511141834975;2833.3333333333335;4482.177808501641
0.1320000000000001;9831531072.0;9829246020.0;484527.0;450.1312782208013;416.05934286912884;29.3222245673399;8455.332696083133;3000.0;5455.332696083133
0.1360000000000001;9833472989.0;9831027546.0;503526.0;485.4792608554944;445.38156743646874;34.961270784332555;8836.995658673273;3250.0;5586.995658673274
0.1400000000000001;9835553791.0;9832948917.0;524072.0;520.2005060974922;480.3428382208013;36.58074263469308;8680.311310499448;3500.0;5180.311310499448
0.1440000000000001;9837770824.0;9835016611.0;537180.0;554.2583078341461;516.9235808554944;35.50772524199783;8514.450434163478;3750.0;4764.450434163478
0.1480000000000001;9840109947.0;9837226336.0;544488.0;584.7806707373842;552.4313060974922;34.49628173665383;7630.590725809526;4083.3333333333335;3547.2573924761928
0.1520000000000001;9842549683.0;9839574046.0;535901.0;609.9339637561261;586.927587834146;30.007142903238105;6288.32325468548;4333.333333333333;1954.989921352147
0.1560000000000001;9845078090.0;9842041784.0;507899.0;632.1016989426488;616.9347307373841;23.47317301874193;5541.933796630673;4583.333333333333;958.6004632973397
0.16000000000000011;9847682410.0;9844603415.0;474675.0;651.079920587236;640.4079037561261;20.174295186522727;4744.555411146792;4750.0;-5.444588853208643
0.16400000000000012;9850339478.0;9847245743.0;436667.0;664.2670163925917;660.5821989426488;16.697741644587154;3296.7739513389347;5000.0;-1703.2260486610653
0.16800000000000012;9853023987.0;9849954862.0;384616.0;671.1272256743551;677.279940587236;10.06403580535573;1715.0523204408614;5166.666666666667;-3451.6143462258055
0.17200000000000013;9855716661.0;9852704237.0;319750.0;673.1685323388045;687.3439763925917;2.9682492817634056;510.32666611234845;5333.333333333333;-4823.006667220985
0.17600000000000013;9858406991.0;9855465485.0;251176.0;672.5823201784441;690.3122256743551;-2.0731333355505512;-146.5530400901116;5333.333333333333;-5479.886373423445
0.18000000000000013;9861091678.0;9858218441.0;188550.0;671.1717048444099;688.2390923388045;-4.343772160360459;-352.6538335085547;5416.666666666667;-5769.320500175221
0.18400000000000014;9863771499.0;9860954022.0;137656.0;669.9552700340646;683.8953201784441;-4.464255334034192;-304.10870258631917;5333.333333333333;-5637.442035919652
0.18800000000000014;9866448561.0;9863671746.0;99753.0;669.2654207954081;679.4310648444099;-3.490614810345278;-172.46230966412668;5333.333333333333;-5505.79564299746
0.19200000000000014;9869124707.0;9866375507.0;73054.0;669.0366594525208;675.9404500340646;-2.29178923865652;-57.19033572182752;5250.0;-5307.190335721827
0.19600000000000015;9871800987.0;9869070101.0;54606.0;669.0697610393752;673.6486607954081;-1.3356413428873566;8.275396713600003;5250.0;-5241.7246032864
0.20000000000000015;9874477739.0;9871759353.0;41634.0;669.1879493331413;672.3130194525207;-0.7452184131456079;29.54707344153462;5250.0;-5220.452926558465
0.20400000000000015;9877154901.0;9874445624.0;32115.0;669.2905740322879;671.5678010393751;-0.4529517062337618;25.656174786632846;5250.0;-5224.343825213367
0.20800000000000016;9879832282.0;9877130083.0;24818.0;669.3453135840365;671.1148493331414;-0.3351953008535702;13.684887937159829;5250.0;-5236.31511206284
0.21200000000000016;9882509718.0;9879813201.0;19081.0;669.3588756822005;670.7796540322878;-0.2894804482513109;3.3905245410039697;5166.666666666667;-5163.276142125663
0.21600000000000016;9885187120.0;9882495161.0;14557.0;669.350434055505;670.4901735840365;-0.25787790183596826;-2.110406673864418;5000.0;-5002.110406673864
0.22000000000000017;9887864466.0;9885176090.0;11030.0;669.3364005308053;670.2322956822005;-0.22006162669549667;-3.5083811749245797;4750.0;-4753.508381174925
0.22400000000000017;9890541768.0;9887856138.0;8328.0;669.3255651614289;670.012234055505;-0.17615352469965728;-2.708842344105733;4500.0;-4502.7088423441055
0.22800000000000017;9893219049.0;9890535482.0;6286.0;669.3202030843753;669.8360805308054;-0.13335536937643155;-1.3405192634081686;4333.333333333333;-4334.673852596741
0.23200000000000018;9895896325.0;9893214292.0;4757.0;669.3190899983362;669.7027251614289;-0.09710207705359153;-0.2782715097850996;4083.3333333333335;-4083.6116048431186
0.23600000000000018;9898573606.0;9895892714.0;3611.0;669.3200816426038;669.6056230843753;-0.06987308603913789;0.24791106690713605;3833.3333333333335;-3833.0854222664266
0.24000000000000019;9901250892.0;9898570856.0;2750.0;669.3215039209441;669.5357499983362;-0.050668355732454984;0.3555695850820939;3416.6666666666665;-3416.311097081584
0.2440000000000002;9903928182.0;9901248796.0;2096.0;669.3225234642654;669.4850816426037;-0.037817721659621384;0.2548858303157431;3166.6666666666665;-3166.4117808363508
0.2480000000000002;9906605474.0;9903926585.0;1597.0;669.3229667757262;669.4472639209441;-0.02892045667874754;0.11082786519978072;2916.6666666666665;-2916.555838801467
0.25200000000000017;9909282766.0;9906604258.0;1216.0;669.3229904979979;669.4183434642654;-0.02241668853923784;0.005930567937184605;2666.6666666666665;-2666.660736098729
0.25600000000000017;9911960058.0;9909281841.0;925.0;669.322821312206;669.3959267757261;-0.017436277728165805;-0.042296447986700514;2416.6666666666665;-2416.708963114653
0.2600000000000002;9914637348.0;9911959354.0;704.0;669.3226251763191;669.378490497998;-0.013429185792006137;-0.04903397172029145;2166.6666666666665;-2166.715700638387
0.2640000000000002;9917314638.0;9914636814.0;534.0;669.3224791002194;669.365061312206;-0.010396135886821867;-0.03651902491697001;2000.0;-2000.036519024917
0.2680000000000002;9919991928.0;9917314232.0;406.0;669.3223946936805;669.3546651763191;-0.007826076099718193;-0.021101634729348007;1750.0;-1750.0211016347293
0.2720000000000002;9922669218.0;9919991619.0;309.0;669.3223530902167;669.3468391002194;-0.005904406538888907;-0.010400865960491501;1416.6666666666667;-1416.6770675326272
0.2760000000000002;9925346507.0;9922668982.0;236.0;669.3223307092047;669.3409346936805;-0.004421603463924839;-0.005595252986267951;1166.6666666666667;-1166.672261919653
0.2800000000000002;9928023796.0;9925346328.0;179.0;669.3223113553237;669.3365130902166;-0.0034423810118369147;-0.004838470260892791;916.6666666666666;-916.6715051369275
0.2840000000000002;9930701086.0;9928023660.0;136.0;669.3222881022799;669.3330707092048;-0.002599353881123534;-0.0058132609410677105;666.6666666666666;-666.6724799276077
0.2880000000000002;9933378375.0;9930700981.0;105.0;669.3222604348595;669.3304713553237;-0.0018832530437293826;-0.006916855113558995;416.6666666666667;-416.67358352178024
0.2920000000000002;9936055664.0;9933378295.0;80.0;669.3222305938887;669.3285881022799;-0.0015276674204187657;-0.007460242699153241;166.66666666666666;-166.6741269093658
0.2960000000000002;9938732953.0;9936055603.0;61.0;669.3222010555173;669.3270604348595;-0.0011698409708742474;-0.007384592834114301;83.33333333333333;-83.34071792616744
0.3000000000000002;9941410242.0;9938732906.0;47.0;669.3221734249995;669.3258905938886;-0.0008695383712620242;-0.006907629455099595;0.0;-0.006907629455099595
0.3040000000000002;9944087530.0;9941410206.0;36.0;669.3221483535198;669.3250210555174;-0.0006876305178593611;-0.006267869935072667;-83.33333333333333;83.32706546339826
0.3080000000000002;9946764819.0;9944087503.0;27.0;669.3221258632198;669.3243334249995;-0.0005650714797411638;-0.005622575002917074;-166.66666666666666;166.66104409166374
0.3120000000000002;9949442108.0;9946764798.0;21.0;669.3221057355242;669.3237683535198;-0.00038249030001225037;-0.005031923876686051;-166.66666666666666;166.66163474278997
0.3160000000000002;9952119396.0;9949442091.0;17.0;669.3220877456121;669.3233858632198;-0.00026012769546923664;-0.004497478045095704;-83.33333333333333;83.32883585528823
0.32000000000000023;9954796684.0;9952119383.0;13.0;669.3220717751119;669.3231257355243;-0.0002579899122565621;-0.003992625039472841;-83.33333333333333;83.32934070829386
0.32400000000000023;9957473973.0;9954796674.0;10.0;669.3220577959211;669.322867745612;-0.0001959705001581824;-0.0034947977098909178;-83.33333333333333;83.32983853562344
0.32800000000000024;9960151261.0;9957473964.0;9.0;669.3220458412518;669.3226717751119;-7.397919080176507e-05;-0.002988667318959415;-83.33333333333333;83.33034466601437
0.33200000000000024;9962828549.0;9960151254.0;7.0;669.3220359715675;669.3225977959211;-0.0001319546693139273;-0.002467421069241027;0.0;-0.002467421069241027
0.33600000000000024;9965505838.0;9962828543.0;6.0;669.3220282354083;669.3224658412518;-6.986968423916551e-05;-0.0019340398011991056;0.0;-0.0019340398011991056
0.34000000000000025;9968183126.0;9965505832.0;6.0;669.3220226733675;669.3223959715675;-7.736159204796422e-06;-0.0013905101923228358;0.0;-0.0013905101923228358
0.34400000000000025;9970860414.0;9968183121.0;5.0;669.3220193200764;669.3223882354083;-6.556204073149274e-05;-0.0008383227907415858;0.0;-0.0008383227907415858
0.34800000000000025;9973537702.0;9970860410.0;4.0;669.3220181988116;669.3223226733676;-6.335329123885458e-05;-0.0002803161862630077;0.0;-0.0002803161862630077
0.35200000000000026;9976214990.0;9973537699.0;3.0;669.3220193288761;669.3222593200763;-6.112126470725343e-05;0.00028251611183804926;0.0;0.00028251611183804926
0.35600000000000026;9978892279.0;9976214987.0;3.0;669.3220227403596;669.3221981988116;1.130064447352197e-06;0.0008528708690391795;0.0;0.0008528708690391795
0.36000000000000026;9981569567.0;9978892275.0;4.0;669.3220284488744;669.3221993288761;6.341148343835812e-05;0.0014271287227529683;0.0;0.0014271287227529683
0.36400000000000027;9984246855.0;9981569564.0;3.0;669.3220364862137;669.3222627403595;-5.429148507118953e-05;0.0020093348211958073;0.0;0.0020093348211958073
0.36800000000000027;9986924144.0;9984246852.0;3.0;669.32204687168;669.3222084488744;8.03733928478323e-06;0.0025963665564177063;0.0;0.0025963665564177063
0.3720000000000003;9989601432.0;9986924140.0;4.0;669.3220596285503;669.3222164862137;7.038546618787223e-05;0.0031892175798020617;0.0;0.0031892175798020617
0.3760000000000003;9992278720.0;9989601429.0;3.0;669.3220747840755;669.3222868716799;-4.7243129642993154e-05;0.0037888813153585943;0.0;0.0037888813153585943
0.3800000000000003;9994956009.0;9992278717.0;3.0;669.3220923578424;669.3222396285503;1.5155525261434377e-05;0.0043934417135460535;0.0;0.0043934417135460535
0.3840000000000003;9997633297.0;9994956006.0;3.0;669.3221123776694;669.3222547840755;1.7573766854184214e-05;0.005004956761922585;0.0;0.005004956761922585
0.3880000000000003;10000310586.0;9997633295.0;2.0;669.3221348588855;669.3222723578424;-3.998017291451106e-05;0.0056203040230684564;0.0;0.0056203040230684564
0.3920000000000003;10002987875.0;10000310583.0;3.0;669.3221598290257;669.3222323776695;8.248121605447523e-05;0.006242535050660081;0.0;0.006242535050660081
0.3960000000000003;10005665164.0;10002987872.0;3.0;669.3221873068246;669.3223148588855;2.4970140202640323e-05;0.006869449720170451;0.0;0.006869449720170451
0.4000000000000003;10008342453.0;10005665161.0;3.0;669.3222173101659;669.3223398290257;2.7477798880681803e-05;0.007500835323526189;0.0;0.007500835323526189
0.4040000000000003;10011019742.0;10008342450.0;3.0;669.3222498665846;669.3223673068246;3.0003341294104757e-05;0.008139104664905972;0.0;0.008139104664905972
0.4080000000000003;10013697031.0;10011019739.0;3.0;669.3222849922605;669.3223973101659;3.255641865962389e-05;0.00878141898397189;0.0;0.00878141898397189
0.4120000000000003;10016374321.0;10013697028.0;3.0;669.3223227033745;669.3224298665846;3.512567593588756e-05;0.009427778508097617;0.0;0.009427778508097617
0.4160000000000003;10019051610.0;10016374317.0;4.0;669.3223630257578;669.3224649922605;9.771111399459187e-05;0.010080595814088156;0.0;0.010080595814088156
0.4200000000000003;10021728900.0;10019051607.0;3.0;669.3224059747392;669.3225627033745;-1.9677616705848777e-05;0.010737245361269743;0.0;0.010737245361269743
0.4240000000000003;10024406190.0;10021728897.0;3.0;669.322451567067;669.3225430257578;4.294898144507897e-05;0.011398081937841198;0.0;0.011398081937841198
0.4280000000000003;10027083480.0;10024406187.0;3.0;669.3224998251659;669.3225859747392;4.559232775136479e-05;0.01206452472501951;0.0;0.01206452472501951
0.43200000000000033;10029760770.0;10027083477.0;3.0;669.3225507652166;669.322631567067;4.825809890007804e-05;0.012735012688835923;0.0;0.012735012688835923
0.43600000000000033;10032438061.0;10029760767.0;3.0;669.3226044016964;669.3226798251659;5.094005075534369e-05;0.013409119929974622;0.0;0.013409119929974622
0.44000000000000034;10035115352.0;10032438057.0;4.0;669.3226607536236;669.3227307652166;0.00011363647968209989;0.014087981810462225;0.0;0.014087981810462225
0.44400000000000034;10037792643.0;10035115348.0;4.0;669.3227198391661;669.3228444016963;5.63519272418489e-05;0.014771385622225353;0.0;0.014771385622225353
0.44800000000000034;10040469934.0;10037792639.0;4.0;669.3227816708136;669.3229007536236;5.908554248890141e-05;0.015457911871408214;0.0;0.015457911871408214
0.45200000000000035;10043147225.0;10040469930.0;4.0;669.3228462658817;669.3229598391661;6.183164748563286e-05;0.01614876703115442;0.0;0.01614876703115442
0.45600000000000035;10045824517.0;10043147222.0;3.0;669.3229136394159;669.3230216708135;4.5950681624162826e-06;0.016843383548348356;0.0;0.016843383548348356
0.46000000000000035;10048501809.0;10045824514.0;3.0;669.3229838064601;669.3230262658817;6.737353419339343e-05;0.0175417610535078;0.0;0.0175417610535078
0.46400000000000036;10051179102.0;10048501806.0;3.0;669.3230567823438;669.3230936394159;7.01670442140312e-05;0.018243970913545127;0.0;0.018243970913545127
0.46800000000000036;10053856394.0;10051179098.0;4.0;669.3231325775696;669.3231638064601;0.0001329758836163819;0.018948806456364764;0.0;0.018948806456364764
0.47200000000000036;10056533687.0;10053856391.0;3.0;669.323211209453;669.3232967823437;1.5795225863257656e-05;0.019657970852904327;0.0;0.019657970852904327
0.47600000000000037;10059210980.0;10056533684.0;3.0;669.3232926916199;669.3233125775696;7.863188341161731e-05;0.02037054173342767;0.0;0.02037054173342767
0.48000000000000037;10061888274.0;10059210977.0;3.0;669.3233770311668;669.323391209453;8.148216693371069e-05;0.02108488672547537;0.0;0.02108488672547537
0.4840000000000004;10064565568.0;10061888270.0;4.0;669.3234642485321;669.3234726916199;0.00014433954686410289;0.02180434131560105;0.0;0.02180434131560105
0.4880000000000004;10067242862.0;10064565564.0;4.0;669.3235543508118;669.3236170311668;8.72173652624042e-05;0.022525569931985956;0.0;0.022525569931985956
0.4920000000000004;10069920157.0;10067242858.0;4.0;669.323647347658;669.3237042485321;9.010227972794382e-05;0.023249211551501503;0.0;0.023249211551501503
0.4960000000000004;10072597452.0;10069920153.0;4.0;669.3237432583733;669.3237943508118;9.299684620600601e-05;0.02397767880779611;0.0;0.02397767880779611
0.5000000000000003;10075274748.0;10072597448.0;4.0;669.3238420840929;669.323887347658;9.591071523118444e-05;0.0247064299117028;0.0;0.0247064299117028
0.5040000000000003;10077952044.0;10075274743.0;5.0;669.3239438438359;669.3239832583732;0.00015882571972269943;0.025439935740223518;0.0;0.025439935740223518
0.5080000000000003;10080629340.0;10077952039.0;5.0;669.3240485427119;669.324142084093;0.00010175974296089407;0.026174719010896297;0.0;0.026174719010896297
0.5120000000000003;10083306637.0;10080629335.0;5.0;669.32415619094;669.3242438438359;0.00010469887604358519;0.026912057023764646;0.0;0.026912057023764646
0.5160000000000003;10085983934.0;10083306632.0;5.0;669.3242667995909;669.324348542712;0.00010764822809505858;0.02765216271427562;0.0;0.02765216271427562
0.5200000000000004;10088661232.0;10085983929.0;5.0;669.3243803774643;669.32445619094;0.00011060865085710248;0.028394468358783342;0.0;0.028394468358783342
0.5240000000000004;10091338530.0;10088661227.0;5.0;669.3244969316569;669.3245667995909;0.00011357787343513337;0.02913854814323713;0.0;0.02913854814323713
