Zeit[sec];Sollposition[°];Istposition[°];Positionsschleppfehler[°];Sollgeschwindigkeit[°/s];Istgeschwindigkeit[°/s];Geschwindigkeitsdifferenz[°/s];Sollbeschleunigung[°/s*s];Istbeschleunigung[°/s*s];Beschleunigungsdifferenz[°/s*s]
0.0;0.0;2.0;-2.0;-5.201946511644683e-09;-0.0001920099227405146;8.380991662389897e-10;9.706737091781106e-07;0.0;9.706737091781106e-07
0.004;0.0;2.0;-2.0;-1.6235041147330126e-09;-0.00019200908464134836;3.8826948367044235e-09;8.946105992279177e-07;0.0;8.946105992279177e-07
0.008;0.0;2.0;-2.0;4.358494848719159e-10;-0.00019200520194651165;3.5784423969202703e-09;5.148383999012321e-07;0.0;5.148383999012321e-07
0.012;0.0;2.0;-2.0;1.085732449425775e-09;-0.00019200162350411473;2.0593535995949187e-09;1.6247074113846478e-07;0.0;1.6247074113846478e-07
0.016;0.0;2.0;-2.0;9.204103521513043e-10;-0.00019199956415051514;6.498829645544719e-10;-4.1330524318617685e-08;0.0;-4.1330524318617685e-08
0.02;0.0;2.0;-2.0;4.950119882529243e-10;-0.00019199891426755058;-1.6532209726628083e-10;-1.0634959097459499e-07;0.0;-1.0634959097459499e-07
0.024;0.0;2.0;-2.0;1.3221876630777727e-10;-0.00019199907958964785;-4.2539836391419956e-10;-9.069830548628677e-08;0.0;-9.069830548628677e-08
0.028;0.0;2.0;-2.0;-6.391659380797592e-11;-0.00019199950498801176;-3.62793221923537e-10;-4.9033840028938294e-08;0.0;-4.9033840028938294e-08
0.032;0.0;2.0;-2.0;-1.1705944842070452e-10;-0.0001919998677812337;-1.96135360123334e-10;-1.328571365318215e-08;0.0;-1.328571365318215e-08
0.036000000000000004;0.0;2.0;-2.0;-9.249461693345146e-11;-0.0001920000639165938;-5.314285461883485e-11;6.141207871813265e-09;0.0;6.141207871813265e-09
0.04000000000000001;0.0;2.0;-2.0;-4.6578571638763944e-11;-0.00019200011705944843;2.4564831478625024e-11;1.147901132367188e-08;0.0;1.147901132367188e-08
0.04400000000000001;0.0;2.0;-2.0;-1.0096389919225674e-11;-0.00019200009249461695;4.5916045298593014e-11;9.120545429884568e-09;0.0;9.120545429884568e-09
0.048000000000000015;0.0;2.0;-2.0;8.37696055555212e-12;-0.00019200004657857165;3.6482181723284865e-11;4.6183376186944486e-09;0.0;4.6183376186944486e-09
0.05200000000000002;-508.0;2.0;-2.0;-0.1272198952053045;-0.00019200001009638993;1.8473350480623443e-11;-31.804973803420364;0.0;-31.804973803420364
0.05600000000000002;-51640.0;2.0;-510.0;-12.782829106990194;-0.00019199999162303945;-0.17598789521368147;-3163.9023029462223;0.0;-3163.9023029462223
0.060000000000000026;-216209.0;-702.0;-50938.0;-41.142215998259374;-0.1761798952053045;-17.496697211784888;-7089.846722817295;0.0;-7089.846722817295
0.06400000000000003;-623511.0;-71393.0;-144816.0;-101.82569871514181;-17.672877106990192;-37.37167489126918;-15170.870679220609;0.0;-15170.870679220609
0.06800000000000003;-1375088.0;-291571.0;-331940.0;-187.8941663134322;-55.04455199825937;-78.64738671688244;-21517.1168995726;-166.66666666666666;-21350.450232905932
0.07200000000000004;-2481059.0;-826338.0;-548750.0;-276.492638381529;-133.69193871514182;-106.8822275982904;-22149.618017024197;-500.0;-21649.618017024197
0.07600000000000004;-3949225.0;-1788634.0;-692425.0;-367.04159036499885;-240.57416631343222;-102.39127206809678;-22637.237995867465;-1083.3333333333333;-21553.904662534133
0.08000000000000004;-5873956.0;-3160495.0;-788730.0;-481.1826869862144;-342.965438381529;-99.79423198346984;-28535.27415530388;-1833.3333333333333;-26701.940821970547
0.08400000000000005;-8416313.0;-4931533.0;-942423.0;-635.5891625342638;-442.75967036499884;-128.89562462121552;-38601.61888701235;-2666.6666666666665;-35934.95222034568
0.08800000000000005;-11723704.0;-7218154.0;-1198159.0;-826.847837723561;-571.6552949862144;-178.95713154804946;-47814.66879732432;-3583.3333333333335;-44231.33546399098
0.09200000000000005;-15902707.0;-10220603.0;-1503101.0;-1044.7506848364608;-750.6124265342638;-220.5331071892972;-54475.71177822493;-4583.333333333333;-49892.3784448916
0.09600000000000006;-21035623.0;-14105185.0;-1797522.0;-1283.2288955828685;-971.145533723561;-246.16726311289983;-59619.552686601935;-6000.0;-53619.552686601935
0.10000000000000006;-27199516.0;-18974436.0;-2061187.0;-1540.973188986525;-1217.3127968364608;-263.7900507464076;-64436.073350914114;-7666.666666666667;-56769.40668424745
0.10400000000000006;-34456758.0;-24898847.0;-2300669.0;-1814.310336826402;-1481.1028475828684;-280.73456540365646;-68334.28695996923;-9583.333333333334;-58750.9536266359
0.10800000000000007;-42852655.0;-31946196.0;-2510562.0;-2098.9741566773496;-1761.837412986525;-293.48687583987726;-71165.95496273691;-11583.333333333334;-59582.621629403584
0.11200000000000007;-52429613.0;-40167493.0;-2685162.0;-2394.239411961157;-2055.324288826402;-301.4254198509475;-73816.31382095191;-13750.0;-60066.3138209519
0.11600000000000008;-63229515.0;-49594491.0;-2835122.0;-2699.9753834095545;-2356.7497086773496;-309.6614152838074;-76433.99286209933;-16083.333333333334;-60350.659528765995
0.12000000000000008;-75285263.0;-60260135.0;-2969380.0;-3013.936869939067;-2666.411123961157;-318.6247394483976;-78490.37163237813;-18416.666666666668;-60073.70496571146
0.12400000000000008;-88615433.0;-72200278.0;-3084985.0;-3332.5422286425523;-2985.0358634095546;-325.05956652951227;-79651.33967587132;-20916.666666666668;-58734.67300920466
0.12800000000000009;-103225400.0;-85440659.0;-3174774.0;-3652.4915775024065;-3310.095429939067;-327.2251027034854;-79987.33721496353;-23333.333333333332;-56654.0038816302
0.1320000000000001;-119111894.0;-99989941.0;-3235459.0;-3971.6234301771683;-3637.3205326425523;-325.7751088598543;-79782.96316869046;-25916.666666666668;-53866.29650202379
0.1360000000000001;-136267795.0;-115842323.0;-3269571.0;-4288.97505863319;-3963.0956415024066;-322.4066046747621;-79337.90711400547;-28416.666666666668;-50921.24044733881
0.1400000000000001;-154685670.0;-132984331.0;-3283464.0;-4604.468418547973;-4285.502246177169;-318.6853564560215;-78873.33997869564;-30916.666666666668;-47956.67331202897
0.1440000000000001;-174359347.0;-151401081.0;-3284589.0;-4918.419183761012;-4604.18760263319;-315.60135991478273;-78487.69130325991;-33416.666666666664;-45071.02463659324
0.1480000000000001;-195284063.0;-171080236.0;-3279111.0;-5231.178568738102;-4919.788962547973;-313.4248772130395;-78189.84624427231;-35916.666666666664;-42273.17957760564
0.1520000000000001;-217456174.0;-192013091.0;-3270972.0;-5543.027644721118;-5233.213839761012;-311.9780409770892;-77962.26899575413;-38500.0;-39462.26899575413
0.1560000000000001;-240872688.0;-214193858.0;-3262316.0;-5854.128243163544;-5545.191880738102;-311.0180999830163;-77775.14961060637;-40916.666666666664;-36858.482943939714
0.16000000000000011;-265530848.0;-237618697.0;-3253991.0;-6164.539658955642;-5856.209980721118;-310.30139844242603;-77602.85394802463;-43333.333333333336;-34269.5206146913
0.16400000000000012;-291428067.0;-262284742.0;-3246106.0;-6474.304479760531;-6166.511379163544;-309.6544557920979;-77441.20520122215;-45750.0;-31691.205201222147
0.16800000000000012;-318561873.0;-288189405.0;-3238662.0;-6783.451153829317;-6476.165834955642;-309.0501968048884;-77286.66851719664;-48166.666666666664;-29120.001850529967
0.17200000000000013;-346929855.0;-315330269.0;-3231604.0;-7091.995088011188;-6785.21603176053;-308.46910606878737;-77135.98354546775;-50583.333333333336;-26552.650212134417
0.17600000000000013;-376529805.0;-343705009.0;-3224846.0;-7399.987088844864;-7093.685137829318;-307.895166181871;-76998.00020841895;-53000.0;-23998.000208418944
0.18000000000000013;-407359724.0;-373311330.0;-3218475.0;-7707.479579783016;-7401.580304011189;-307.38038483367563;-76873.1227345379;-55416.666666666664;-21456.456067871237
0.18400000000000014;-439417747.0;-404147172.0;-3212552.0;-8014.505290759228;-7708.960688844864;-306.9238829381511;-76756.4277440531;-57833.333333333336;-18923.094410719765
0.18800000000000014;-472702232.0;-436210710.0;-3207037.0;-8321.12091091583;-8015.884571783015;-306.49627097621305;-76653.90503915046;-60166.666666666664;-16487.238372483793
0.19200000000000014;-507211752.0;-469500233.0;-3201999.0;-8627.379412094773;-8322.380842759228;-306.1319721566015;-76564.62529473583;-62583.333333333336;-13981.291961402498
0.19600000000000015;-542944955.0;-504014284.0;-3197468.0;-8933.30045033319;-8628.51281491583;-305.8235251789429;-76480.2595596043;-64833.333333333336;-11646.926226270956
0.20000000000000015;-579900582.0;-539751629.0;-3193326.0;-9238.906227823438;-8934.336340094773;-305.523406238417;-76401.44437256185;-66916.66666666667;-9484.777705895183
0.20400000000000015;-618077487.0;-576711067.0;-3189515.0;-9544.225814991749;-9239.85974633319;-305.23992149024707;-76329.89679207776;-68666.66666666667;-7663.23012541109
0.20800000000000016;-657474578.0;-614891465.0;-3186022.0;-9849.272268338009;-9545.099667823437;-304.98425916831184;-76261.613336565;-70333.33333333333;-5928.280003231677
0.21200000000000016;-698090766.0;-654291800.0;-3182778.0;-10154.046598876326;-9850.083926991749;-304.7350293462605;-76193.58263457935;-71916.66666666667;-4276.9159679126715
0.21600000000000016;-739924993.0;-694911075.0;-3179691.0;-10458.556184738703;-10154.81895633801;-304.47797853831617;-76127.3964655943;-73416.66666666667;-2710.7297989276303
0.22000000000000017;-782975430.0;-736748262.0;-3176731.0;-10762.608856018394;-10459.296934876325;-304.22542586237796;-76013.16781992273;-74666.66666666667;-1346.5011532560566
0.22400000000000017;-827238171.0;-779802351.0;-3173079.0;-11065.684775243091;-10763.522360738703;-303.7020792796902;-75768.97980617423;-75750.0;-18.979806174229452
0.22800000000000017;-872707922.0;-824071248.0;-3166923.0;-11367.43704367785;-11067.224440018394;-302.4849432246974;-75438.06710868966;-76416.66666666667;978.599557977006
0.23200000000000018;-919378470.0;-869550085.0;-3157837.0;-11667.636615662585;-11369.709383243091;-300.8800124347581;-75049.89299618364;-76916.66666666667;1866.7736704830277
0.23600000000000018;-967240839.0;-916232442.0;-3146028.0;-11965.591512349658;-11670.58939567785;-299.06590798473553;-74488.72417176835;-77166.66666666667;2677.942494898318
0.24000000000000019;-1016283723.0;-964111063.0;-3129776.0;-12260.720351131433;-11969.655303662585;-296.3947046870726;-73782.20969544373;-77416.66666666667;3634.456971222946
0.2440000000000002;-1066488501.0;-1013175263.0;-3108460.0;-12551.194099578543;-12266.050008349657;-293.0825027817755;-72618.43711177744;-77416.66666666667;4798.2295548892325
0.2480000000000002;-1117817929.0;-1063411793.0;-3076708.0;-12832.356294287054;-12559.132511131433;-287.42555644710956;-70290.54867712784;-77416.66666666667;7126.117989538827
0.25200000000000017;-1170221661.0;-1114798025.0;-3019904.0;-13100.932384128086;-12846.558067578542;-275.7090107085114;-67144.02246025793;-77250.0;10105.97753974207
0.25600000000000017;-1223643494.0;-1167287093.0;-2934568.0;-13355.457574410839;-13122.267078287054;-260.38383384103145;-63631.29757068827;-77000.0;13368.702429311725
0.2600000000000002;-1278010019.0;-1220817696.0;-2825798.0;-13591.63077916609;-13382.650912128085;-244.0832702827538;-59043.30118881262;-76583.33333333333;17540.03214452071
0.2640000000000002;-1333231768.0;-1275324632.0;-2685387.0;-13805.436364189078;-13626.734182410839;-222.69374875524954;-53451.39625574711;-76083.33333333333;22631.937077586215
0.2680000000000002;-1389220735.0;-1330722343.0;-2509425.0;-13997.241239858438;-13849.427931166088;-196.91323302298952;-47951.21891734016;-75500.0;27548.781082659843
0.2720000000000002;-1445895153.0;-1386907707.0;-2313028.0;-14168.60385794069;-14046.341164189078;-172.95076366935973;-42840.654520563025;-74666.66666666667;31826.01214610365
0.2760000000000002;-1503169590.0;-1443784874.0;-2110279.0;-14318.6084329662;-14219.291927858438;-151.8987140822519;-37501.14375637758;-73750.0;36248.85624362242
0.2800000000000002;-1560953148.0;-1501269636.0;-1899954.0;-14445.888867269532;-14371.19064194069;-129.81337502551105;-31820.10857583282;-72583.33333333333;40763.22475750051
0.2840000000000002;-1619159996.0;-1559273652.0;-1679496.0;-14551.711257880763;-14501.0040169662;-106.11646630333053;-26455.597652807683;-71333.33333333333;44877.73568052564
0.2880000000000002;-1677658891.0;-1617702133.0;-1457863.0;-14624.72308465251;-14607.120483269531;-84.54562261123101;-18252.956692937005;-69833.33333333333;51580.37664039632
0.2920000000000002;-1736431761.0;-1676468797.0;-1190094.0;-14693.216937820356;-14691.666105880762;-47.30600277174926;-17123.463291961343;-68333.33333333333;51209.870041371985
0.2960000000000002;-1795432418.0;-1735424685.0;-1007076.0;-14750.163503905731;-14738.972108652511;-50.92412516784498;-14236.6415213437;-66500.0;52263.3584786563
0.3000000000000002;-1854590482.0;-1794584269.0;-848149.0;-14789.515190612128;-14789.896233820356;-41.68957408537426;-9837.921676599308;-64583.333333333336;54745.411656734024
0.3040000000000002;-1913859354.0;-1853910612.0;-679870.0;-14817.217390841606;-14831.58580790573;-23.19690270639694;-6925.550057369492;-62500.0;55574.44994263051
0.3080000000000002;-1973195414.0;-1913329742.0;-529612.0;-14834.014128744146;-14854.782710612128;-13.277432229479018;-4199.1844756348655;-60416.666666666664;56217.4821910318
0.3120000000000002;-2032563538.0;-1972801982.0;-393432.0;-14842.030345826744;-14868.060142841607;-3.7234579025389394;-2004.0542706497035;-58250.0;56245.94572935029
0.3160000000000002;-2091937229.0;-2032289116.0;-274422.0;-14843.422193817101;-14871.783600744146;3.4087429174014687;-347.9619975892092;-55916.666666666664;55568.70466907746
0.32000000000000023;-2151290873.0;-2091762615.0;-174614.0;-14838.410216193044;-14868.374857826744;8.18972000964277;1252.9944060142952;-53500.0;54752.994406014295
0.32400000000000023;-2210599627.0;-2151203355.0;-87518.0;-14827.187909965702;-14860.185137817101;13.373193624056512;2805.5765568356037;-51083.333333333336;53888.90989016894
0.32800000000000024;-2269818256.0;-2210590602.0;-9025.0;-14804.656534736256;-14846.811944193045;18.75763422734235;5632.843807361496;-48666.666666666664;54299.51047402816
0.33200000000000024;-2328839234.0;-2269902819.0;84563.0;-14755.243722869905;-14828.054309965702;31.51582322944705;12353.20296658756;-46250.0;58603.20296658756
0.33600000000000024;-2387509004.0;-2329088972.0;249738.0;-14667.441780122484;-14796.538486736255;65.2696118663498;21950.485686855245;-43666.666666666664;65617.1523535219
0.34000000000000025;-2445664866.0;-2388014047.0;505043.0;-14538.964909350661;-14731.268874869906;112.3112227474212;32119.21769295577;-40916.666666666664;73035.88435962243
0.34400000000000025;-2503117880.0;-2446489877.0;825011.0;-14363.252589851823;-14618.957652122484;159.1937987718229;43928.07987470951;-38000.0;81928.07987470951
0.34800000000000025;-2559637644.0;-2504328932.0;1211052.0;-14129.940419079405;-14459.763853350662;212.7722554988377;58328.04269310464;-34750.0;93078.04269310464
0.35200000000000026;-2614964545.0;-2561316898.0;1679254.0;-13831.72459938171;-14246.991597851824;278.2595627724186;74553.95492442358;-31166.666666666668;105720.62159109025
0.35600000000000026;-2668812296.0;-2617191826.0;2227281.0;-13461.93721394503;-13968.732035079405;350.8264116976952;92446.84635917019;-27000.0;119446.84635917019
0.36000000000000026;-2720861849.0;-2671663448.0;2851152.0;-13012.387566324376;-13617.90562338171;429.67900143667975;112387.41190516339;-22500.0;134887.41190516338
0.36400000000000027;-2770784746.0;-2724416354.0;3554505.0;-12480.723658826399;-13188.22662194503;517.0715356206547;132915.9768744944;-17333.333333333332;150249.31020782772
0.36800000000000027;-2818286554.0;-2775100974.0;4316228.0;-11875.451313463656;-12671.155086324376;604.7893154979774;151318.08634068558;-11666.666666666666;162984.75300735224
0.3720000000000003;-2863102508.0;-2823366437.0;5079883.0;-11203.988058992725;-12066.365770826398;678.5832253627414;167865.81361773278;-5250.0;173115.81361773278
0.3760000000000003;-2904976298.0;-2868917567.0;5815059.0;-10468.447074828893;-11387.782545463657;742.0401504709316;183885.246040958;1750.0;182135.246040958
0.3800000000000003;-2943680849.0;-2911500536.0;6524238.0;-9676.137271988335;-10645.742394992725;803.6221681638326;198077.4507101396;9333.333333333334;188744.11737680627
0.3840000000000003;-2979033774.0;-2950869016.0;7188167.0;-8838.230727338763;-9842.120226828893;856.046986840558;209476.63616239288;17333.333333333332;192143.30282905954
0.3880000000000003;-3010900763.0;-2986813308.0;7779534.0;-7966.747049390861;-8986.073239988335;894.6777766495716;217870.91948697547;25750.0;192120.91948697547
0.3920000000000003;-3039213439.0;-3019178889.0;8278126.0;-7078.168622710126;-8091.395463338763;919.3485099479012;222144.60667018374;34416.666666666664;187727.94000351708
0.3960000000000003;-3063963485.0;-3047867076.0;8653637.0;-6187.511049334412;-7172.046953390862;924.6274826807357;222664.39334392862;43250.0;179414.39334392862
0.4000000000000003;-3085202209.0;-3072856753.0;8893268.0;-5309.6808803454305;-6247.419470710126;913.6621493757139;219457.54224724532;52083.333333333336;167374.208913912
0.4040000000000003;-3103076492.0;-3094191782.0;8989573.0;-4468.570513975443;-5333.757321334412;887.0754489889814;210277.59159249696;60833.333333333336;149444.25825916362
0.4080000000000003;-3117819293.0;-3111978509.0;8902017.0;-3685.6999287259864;-4446.681872345431;832.7049903699881;195717.6463123641;69333.33333333333;126384.31297903076
0.4120000000000003;-3129699335.0;-3126434416.0;8615123.0;-2970.0105148852704;-3613.9768819754427;755.3287612494564;178922.353460179;77333.33333333333;101589.02012684569
0.4160000000000003;-3139007262.0;-3137869008.0;8169673.0;-2326.9816291943794;-2858.6481207259862;672.9262138407162;160757.22142272274;84750.0;76007.22142272275
0.4200000000000003;-3146067767.0;-3146611895.0;7604633.0;-1765.1261871068764;-2185.72190688527;588.7850456908907;140463.86052187576;91500.0;48963.860521875744
0.4240000000000003;-3151232332.0;-3152999642.0;6931875.0;-1291.1410711361684;-1596.9368611943794;497.27067408750304;118496.27899267699;97416.66666666667;21079.61232601032
0.4280000000000003;-3154854407.0;-3157398306.0;6165974.0;-905.5186590717875;-1099.6661871068764;400.4586199707079;96405.60301609522;102500.0;-6094.396983904772
0.43200000000000033;-3157280281.0;-3160195136.0;5340729.0;-606.4686124012815;-699.2075671361684;306.3988920643809;74762.51166762652;106666.66666666667;-31904.154999040158
0.43600000000000033;-3158762994.0;-3161766370.0;4486089.0;-370.6783080775124;-392.80867507178755;217.00460667050612;58947.57608094227;110083.33333333333;-51135.75725239106
0.44000000000000034;-3159478851.0;-3162469586.0;3706592.0;-178.9642034184868;-175.80406840128143;160.95859232376904;47928.5261647564;112666.66666666667;-64738.140501910275
0.44400000000000034;-3159775126.0;-3162528967.0;3050116.0;-74.06863937200197;-14.845476077512387;128.69240865902563;26223.891011621206;114666.66666666667;-88442.77565504547
0.44800000000000034;-3159928270.0;-3162073580.0;2298454.0;-38.28597820418219;113.84693258151324;32.7360120464848;8945.665291954943;116000.0;-107054.33470804506
0.45200000000000035;-3160039286.0;-3161487249.0;1558979.0;-27.754117369622566;146.58294462799805;-35.20693883218024;2632.965208639907;116833.33333333333;-114200.36812469343
0.45600000000000035;-3159995453.0;-3161041745.0;1002459.0;10.958339827384961;111.3760057958178;-42.89405916544037;9678.114299251882;117000.0;-107321.88570074811
0.46000000000000035;-3160033180.0;-3160767818.0;772365.0;-9.431896300441572;68.48194663037744;16.62343319700753;-5097.559031956634;116833.33333333333;-121930.89236528997
0.46400000000000036;-3159985786.0;-3160427397.0;394217.0;11.848665599205;85.10537982738497;-56.69244412782653;5320.140474911644;116500.0;-111179.85952508835
0.46800000000000036;-3159993477.0;-3160313746.0;327960.0;-1.9227526042334455;28.41293569955843;14.91988989964657;-3442.8545508596117;116000.0;-119442.85455085961
0.47200000000000036;-3159999513.0;-3160140415.0;146938.0;-1.5089530546573353;43.332825599205;-31.14953020343845;103.44988739402756;115333.33333333333;-115229.8834459393
