Zeit[sec];Sollposition[°];Istposition[°];Positionsschleppfehler[°];Sollgeschwindigkeit[°/s];Istgeschwindigkeit[°/s];Geschwindigkeitsdifferenz[°/s];Sollbeschleunigung[°/s*s];Istbeschleunigung[°/s*s];Beschleunigungsdifferenz[°/s*s]
0.0;-9979199650.0;-9979953003.0;752344.0;0.10289900814650434;-17.721015626356007;63.176628577559384;-35.26875732571549;-1833.3333333333333;1798.0645760076177
0.004;-9979199623.0;-9979953003.0;753100.0;0.0069275321209892726;-4.562016358338297;49.936748512184664;-23.992869006378765;3416.6666666666665;-3440.6595356730454
0.008;-9979199758.0;-9979936523.0;736882.0;-0.033917087586882354;5.29078151345998;38.9878129156046;-10.211154926967907;5916.666666666667;-5926.8778215936345
0.012;-9979199906.0;-9979848633.0;648956.0;-0.03695401310047676;23.21852233949304;15.710133272160792;-0.7592313783986014;5083.333333333333;-5084.092564711732
0.016;-9979200001.0;-9979711304.0;511488.0;-0.023766676369675454;37.156489340640604;-6.502091197771218;3.2968341827003265;2583.3333333333335;-2580.036499150633
0.02;-9979200038.0;-9979530029.0;330086.0;-0.009263071366175372;44.46061718220264;-24.68716482779744;3.6259012508750206;3416.6666666666665;-3413.0407654157916
0.024;-9979200038.0;-9979310303.0;110288.0;0.0001098055928473254;52.561211976766586;-45.96202546988571;2.3432192397556744;3166.6666666666665;-3164.3234474269107
0.028;-9979200023.0;-9979172974.0;-27063.0;0.0037866892484296347;30.19355250708759;-31.82296436127052;0.9192209138955774;1583.3333333333333;-1582.4141124194377
0.032;-9979200007.0;-9979118042.0;-81989.0;0.0037645882457132576;11.4854627687037;-16.403290055420843;-0.005525250679094275;-1500.0;1499.994474749321
0.036000000000000004;-9979200407.0;-9979063110.0;-136906.0;-0.09988863609493118;8.501490692272782;-16.712094309871716;-25.913306085161107;-3166.6666666666665;3140.7533605815056
0.04000000000000001;-9979204477.0;-9979090576.0;-109589.0;-1.0173958347312353;-9.651624982394278;3.038952816256188;-229.37679965907603;-3666.6666666666665;3437.2898670075906
0.04400000000000001;-9979278138.0;-9979112549.0;-89469.0;-18.415438238435392;-3.073203153423965;-2.7579954077321847;-4349.510600926039;-2750.0;-1599.5106009260392
0.048000000000000015;-9979432746.0;-9979183960.0;-49699.0;-38.6518743793255;-16.567904865168035;5.675893080429814;-5059.1090352225265;-1916.6666666666667;-3142.44236855586
0.05200000000000002;-9979747583.0;-9979304810.0;-34196.0;-78.70922192021754;-33.26000564844907;4.871318329168346;-10014.336885223012;-1916.6666666666667;-8097.6702185563445
0.05600000000000002;-9980271888.0;-9979568481.0;11813.0;-131.0763393413212;-74.64887890257687;20.942244987386076;-13091.77935527591;-2833.3333333333335;-10258.446021942576
0.060000000000000026;-9981051023.0;-9980090332.0;136715.0;-194.7836392574772;-129.9612174018994;38.9268626811449;-15926.824979039004;-7666.666666666667;-8260.158312372338
0.06400000000000003;-9982180474.0;-9980875854.0;298123.0;-282.36270316415994;-197.45516495778412;59.314095204960864;-21894.765976670682;-11916.666666666666;-9978.099310004018
0.06800000000000003;-9983774636.0;-9981870117.0;375850.0;-398.54064017333303;-250.93243258022517;44.34934786700441;-29044.484252293274;-14833.333333333334;-14211.150918959938
0.07200000000000004;-9985924566.0;-9983336792.0;530876.0;-537.4824264084007;-376.6494005141184;80.58967918377067;-34735.44655876691;-16666.666666666668;-18068.779892100243
0.07600000000000004;-9988688725.0;-9985226440.0;608731.0;-691.0396831259233;-470.5361442521289;54.11184690171183;-38389.31417938065;-21916.666666666668;-16472.64751271398
0.08000000000000004;-9992096551.0;-9987604980.0;597065.0;-851.956370157415;-601.2595054709911;39.53203813492394;-40229.17175787294;-25666.666666666668;-14562.505091206265
0.08400000000000005;-9996148259.0;-9990576782.0;553103.0;-1012.9271497297813;-746.4008857504427;25.646180090841995;-40242.69489309157;-30666.666666666668;-9576.0282264249
0.08800000000000005;-10000810341.0;-9994114380.0;431358.0;-1165.5203454496711;-886.19708914233;-2.757328734014777;-38148.29892997247;-32500.0;-5648.2989299724695
0.09200000000000005;-10006019665.0;-9998228760.0;255799.0;-1302.3309953258652;-1035.4379719733372;-21.69886742912422;-34202.662469048504;-35500.0;1297.337530951495
0.09600000000000006;-10011695002.0;-10003095703.0;247263.0;-1418.8340899832267;-1226.6340558476747;22.600306144730894;-29125.773664340384;-37583.333333333336;8457.55966899295
0.10000000000000006;-10017749357.0;-10008588867.0;349543.0;-1513.5887069172043;-1365.0884247813299;38.33997768627478;-23688.654233494388;-41000.0;17311.345766505612
0.10400000000000006;-10024097512.0;-10014252319.0;190114.0;-1587.0386546912578;-1414.343792428337;-29.96954730810444;-18362.486943513373;-36833.333333333336;18470.846389819962
0.10800000000000007;-10030662937.0;-10019921265.0;-309562.0;-1641.3561083042605;-1421.9399964462593;-138.78898427434638;-13579.363403250682;-24500.0;10920.636596749318
0.11200000000000007;-10037385275.0;-10025897827.0;-765577.0;-1680.5845230508726;-1511.1122643003316;-142.96666125049046;-9807.103686653023;-11333.333333333334;1526.2296466803118
0.11600000000000008;-10044220365.0;-10032709351.0;-580419.0;-1708.7724414154357;-1706.3771922393516;14.96075676183068;-7046.979591140769;-17000.0;9953.02040885923
0.12000000000000008;-10051136202.0;-10039564819.0;-491074.0;-1728.9592148171603;-1672.1420063973665;-48.85317185617009;-5046.6933504311555;-27333.333333333332;22286.639982902176
0.12400000000000008;-10058109872.0;-10045502930.0;-1419407.0;-1743.4172291609484;-1505.674992370218;-296.10044569642855;-3614.503585947034;-10833.333333333334;7218.8297473863
0.12800000000000009;-10065124496.0;-10052155151.0;-1705480.0;-1753.6559314516157;-1682.8261082321628;-154.07600149044424;-2559.6755726668334;4083.3333333333335;-6643.0089060001665
0.1320000000000001;-10072167341.0;-10059521484.0;-1328715.0;-1760.7113063550948;-1836.452607970059;9.337708258408838;-1763.8437258697763;-2083.3333333333335;319.48960746355715
0.1360000000000001;-10079229234.0;-10066470337.0;-1405436.0;-1765.4731419047562;-1719.4916592126042;-121.22778575183361;-1190.458887415332;-19666.666666666668;18476.207779251337
0.1400000000000001;-10086303389.0;-10073034668.0;-1891337.0;-1768.5386773683451;-1650.6913417081162;-225.34683795129558;-766.3838658972395;-9833.333333333334;9066.949467436094
0.1440000000000001;-10093384495.0;-10080203247.0;-1789401.0;-1770.2764265510925;-1826.528033738427;-47.496703698507645;-434.4372956868483;6250.0;-6684.437295686848
0.1480000000000001;-10100468825.0;-10088036499.0;-1032988.0;-1771.082335866146;-1925.9251933299824;94.73620768483556;-201.47732876336022;-8333.333333333334;8131.856004569974
0.1520000000000001;-10107554069.0;-10095144653.0;-1007177.0;-1771.3109132081406;-1767.470817666322;-63.54557721175547;-57.14433549866271;-16750.0;16692.855664501338
0.1560000000000001;-10114638906.0;-10101950684.0;-1285820.0;-1771.2092633948569;-1719.4864141423182;-128.83102694348395;25.41245332093922;-2166.6666666666665;2192.0791199876057
0.16000000000000011;-10121722709.0;-10109426880.0;-894701.0;-1770.950490544917;-1879.5410123975425;54.589681072446865;64.69321248493998;11333.333333333334;-11268.640120848395
0.16400000000000012;-10128805291.0;-10117084351.0;-321659.0;-1770.645488989277;-1914.7340751502886;124.32727554274402;76.25038891001168;-2750.0;2826.2503889100117
0.16800000000000012;-10135886700.0;-10124016724.0;-472611.0;-1770.3522132389871;-1708.8189726039768;-90.36876583700882;73.31893757248054;-10833.333333333334;10906.652270905815
0.17200000000000013;-10142967062.0;-10130597534.0;-973926.0;-1770.0904025044272;-1679.0967853801549;-149.86977147502512;65.45268363998957;10666.666666666666;-10601.213983026677
0.17600000000000013;-10150046494.0;-10138062744.0;-589716.0;-1769.8580060565912;-1868.533949761331;62.90086197515734;58.09911195899531;12083.333333333334;-12025.23422137434
0.18000000000000013;-10157125048.0;-10145478516.0;-253944.0;-1769.6383282845422;-1822.9393108247743;37.70287583350364;54.91944301223839;-3333.3333333333335;3388.252776345572
0.18400000000000014;-10164202672.0;-10152070313.0;-741236.0;-1769.4059482658802;-1645.5327732669787;-168.71365568339434;58.095004665517536;-8000.0;8058.095004665518
0.18800000000000014;-10171279242.0;-10158673096.0;-1216643.0;-1769.1423347602379;-1674.5201345234216;-168.02592588912376;65.90337641057431;11250.0;-11184.096623589427
0.19200000000000014;-10178354380.0;-10166445923.0;-521028.0;-1768.784601982886;-1950.0151764188038;149.45070518733132;89.43319433797114;8333.333333333334;-8243.900138995363
0.19600000000000015;-10185427181.0;-10173779297.0;-263662.0;-1768.19996821115;-1804.009194345072;19.18743043122663;146.15844293399505;-15916.666666666666;16062.82510960066
0.20000000000000015;-10192496351.0;-10180211792.0;-905387.0;-1767.2924572196368;-1619.1619376957565;-203.71618222203188;226.87774787829085;-6166.666666666667;6393.544414544958
0.20400000000000015;-10199560419.0;-10187358398.0;-830156.0;-1766.016891586834;-1826.456664763473;8.803724892178252;318.89140820072726;10666.666666666666;-10347.77525846594
0.20800000000000016;-10206617675.0;-10195252075.0;-3648.0;-1764.313947194219;-1952.3548480411619;185.3439352170226;425.7360981537204;1333.3333333333333;-907.5972351796129
0.21200000000000016;-10213666172.0;-10202360229.0;43109.0;-1762.1242129388763;-1736.0370225715415;-26.72561218946339;547.433563835682;-16916.666666666668;17464.10023050235
0.21600000000000016;-10220700466.0;-10208688354.0;-682589.0;-1758.573423328416;-1626.9843642682433;-177.42670569815414;887.6974026150606;2583.3333333333335;-1695.635930718273
0.22000000000000017;-10227707559.0;-10216252441.0;-161419.0;-1751.7731723579523;-1905.8350215442701;135.42067073080148;1700.0627426159554;15750.0;-14049.937257384045
0.22400000000000017;-10234669773.0;-10223882446.0;444994.0;-1740.553410428333;-1866.641503934294;137.44310845388077;2804.9404824047883;-3666.6666666666665;6471.607149071455
0.22800000000000017;-10241556420.0;-10230320435.0;-106476.0;-1721.6615938081409;-1615.0643052007556;-138.68881208144398;4722.954155048057;-9666.666666666666;14389.620821714723
0.23200000000000018;-10248308871.0;-10237000122.0;-359305.0;-1688.112662359635;-1701.1630021532103;-53.524138962426605;8387.232862126495;10250.0;-1862.7671378735045
0.23600000000000018;-10254851396.0;-10244432373.0;239063.0;-1635.6312148402728;-1855.1699100153744;161.04302908660225;13120.361879840515;14166.666666666666;-1046.3047868261501
0.24000000000000019;-10261108249.0;-10251375732.0;512417.0;-1564.2131629341711;-1705.2010181724877;68.44487396135673;17854.512976525428;-6916.666666666667;24771.179643192096
0.2440000000000002;-10267004679.0;-10257319336.0;25531.0;-1474.107439905917;-1484.1613139481694;-121.92940769987467;22526.430757063506;750.0;21776.430757063506
0.2480000000000002;-10272461486.0;-10263334351.0;-75079.0;-1364.2017536082146;-1535.9698563964366;2.558999593085673;27476.421574425614;26250.0;1226.4215744256148
0.25200000000000017;-10277410739.0;-10269585571.0;451903.0;-1237.3131194900943;-1534.6592484762593;130.71391269007472;31722.158529530076;22000.0;9722.158529530077
0.25600000000000017;-10281817127.0;-10274864502.0;472688.0;-1101.5968596872901;-1310.9100172387064;24.734925792821286;33929.064950701046;12916.666666666666;21012.39828403438
0.2600000000000002;-10285658259.0;-10279270020.0;141217.0;-960.2831541785824;-1102.0925160032734;-73.68169513209273;35328.426377176926;21583.333333333332;13745.093043843593
0.2640000000000002;-10288917795.0;-10283307495.0;-6762.0;-814.8838170766059;-1006.5772366494612;-40.19187929013992;36349.83427549415;43166.666666666664;-6816.832391172518
0.2680000000000002;-10291608091.0;-10287119751.0;191644.0;-672.5740173822372;-940.4353292072043;48.47137033176932;35577.449923592154;38250.0;-2672.5500764078447
0.2720000000000002;-10293763327.0;-10290338745.0;373389.0;-538.8090733666245;-794.5873702718318;57.67855594264461;33441.236003903185;26750.0;6691.2360039031855
0.2760000000000002;-10295423086.0;-10292915039.0;468194.0;-414.9396199184933;-642.4243809579909;50.143867318133516;30967.3633620328;27500.0;3467.363362032799
0.2800000000000002;-10296629247.0;-10295002441.0;593674.0;-301.54015538079705;-520.6147204255611;65.75461092209514;28349.86613442406;33666.666666666664;-5316.8005322426025
0.2840000000000002;-10297426810.0;-10296798706.0;907121.0;-199.39074027584394;-445.3265120238811;129.0494703492614;25537.353776238277;33333.333333333336;-7795.979557095059
0.2880000000000002;-10297898562.0;-10298106079.0;1167678.0;-117.93810856576866;-312.68310537520796;121.03982701146066;20363.15792751882;26916.666666666668;-6553.508739147847
0.2920000000000002;-10298163308.0;-10298836670.0;1227491.0;-66.18660085525715;-172.33544212227315;78.29032589290529;12937.876927627876;27250.0;-14312.123072372124
0.2960000000000002;-10298298252.0;-10299039917.0;1039152.0;-33.73576301853625;-48.29821743898094;12.750631549230476;8112.709459180227;31000.0;-22887.290540819773
0.3000000000000002;-10298359398.0;-10299028931.0;813671.0;-15.286645185671864;-1.5442746271640062;-3.2590475606090403;4612.279458216096;31583.333333333332;-26971.053875117235
0.3040000000000002;-10298332503.0;-10299006958.0;685253.0;6.7238936519105765;7.3256805769801145;7.178381729856405;5502.63470939561;21333.333333333332;-15830.698623937722
0.3080000000000002;-10298316997.0;-10298919067.0;570692.0;3.87643317716424;22.59215780232102;4.981451446693679;-711.8651186865841;10166.666666666666;-10878.53178535325
0.3120000000000002;-10298311859.0;-10298765259.0;438747.0;1.2844101204804204;36.063076357312504;-4.272304293027624;-648.005764170955;3916.6666666666665;-4564.6724308376215
0.3160000000000002;-10298312599.0;-10298649902.0;334852.0;-0.18488351304593723;23.624651742368936;-0.6681108681550931;-367.3234083815894;2666.6666666666665;-3033.990075048256
0.32000000000000023;-10298315196.0;-10298611450.0;299268.0;-0.6494291086653858;7.982095153056085;10.691030634615554;-116.13639890486215;333.3333333333333;-449.4697322381955
0.32400000000000023;-10298317397.0;-10298578491.0;264867.0;-0.5500739390004272;12.837631512202323;2.6939290470155246;24.838792416239652;-2333.3333333333335;2358.1721257495733
0.32800000000000024;-10298318509.0;-10298578491.0;262438.0;-0.27796663073619154;-0.2270744682699442;15.366040078899449;68.02682706605891;-2416.6666666666665;2484.6934937327255
0.33200000000000024;-10298318715.0;-10298605957.0;288132.0;-0.05152980415228974;-3.466909039221704;20.312059237085286;56.60920664597545;-1916.6666666666667;1973.2758733126423
0.33600000000000024;-10298318362.0;-10298611450.0;292866.0;0.08813200718058237;-3.3372275846228003;20.719405238865903;34.915452833218026;-416.6666666666667;451.5821194998847
0.34000000000000025;-10298317036.0;-10298649902.0;331329.0;0.3315192941124308;-9.092768390841782;28.975025534321063;60.84682173296211;-1083.3333333333333;1144.1801550662954
0.34400000000000025;-10298311974.0;-10298682861.0;365024.0;1.2656452810902266;-3.473141024790704;25.558393957329365;233.53149674444893;-416.6666666666667;650.1981634111156
0.34800000000000025;-10298295956.0;-10298682861.0;367825.0;4.004429529825718;1.029953196398914;21.74000635840435;684.696062183873;-83.33333333333333;768.0293955172062
0.35200000000000026;-10298148087.0;-10298688354.0;382702.0;36.96728554378437;-1.9406059128120543;27.248782960642178;8240.714003489664;500.0;7740.714003489663
0.35600000000000026;-10297986651.0;-10298649902.0;412481.0;40.358887463647086;3.664601625986397;38.14189770469469;847.9004799656789;1500.0;-652.0995200343211
0.36000000000000026;-10297741890.0;-10298551025.0;466079.0;61.19028177186085;26.01281233394146;40.07078864279928;5207.848577053442;1166.6666666666667;4041.181910386775
0.36400000000000027;-10297396723.0;-10298276367.0;385815.0;86.29165907407713;71.87095164547861;-0.12371449660369649;6275.34432555407;3666.6666666666665;2608.677658887403
0.36800000000000027;-10296933864.0;-10297836914.0;230444.0;115.71480636968803;108.65449590849876;-23.807329196309936;7355.786823902726;7083.333333333333;272.4534905693927
0.3720000000000003;-10296334289.0;-10297369995.0;154767.0;149.89371709661543;115.31000767364353;-8.213588816201636;8544.727681731849;8583.333333333334;-38.60565160148434
0.3760000000000003;-10295575355.0;-10296798706.0;99853.0;189.73353872135306;145.77011485107988;-10.68512567722621;9959.955406184406;6916.666666666667;3043.288739517739
0.3800000000000003;-10294631098.0;-10296090088.0;53192.0;236.06425824008278;183.3018813322708;-14.621044513661559;11582.679879682431;5500.0;6082.6798796824305
0.3840000000000003;-10293476736.0;-10295282593.0;77175.0;288.5905663332668;204.3827461091578;8.117262529139168;13131.577023296004;6416.666666666667;6714.910356629336
0.3880000000000003;-10292093322.0;-10294288330.0;109387.0;345.8532788800837;249.759178734459;13.422690881241465;14315.678136704222;8166.666666666667;6149.011470037554
0.3920000000000003;-10290467273.0;-10293079834.0;144837.0;406.5124316168174;306.92479943344745;12.751986358228464;15164.788184183437;9666.666666666666;5498.12151751677
0.3960000000000003;-10288588481.0;-10291646118.0;189394.0;469.69796729886195;357.47955934032797;23.45224209428119;15796.383920511133;11750.0;4046.3839205111326
0.4000000000000003;-10286449872.0;-10289970703.0;238815.0;534.6522057853905;423.81391760264336;21.72406691510099;16238.559621632136;13416.666666666666;2821.8929549654686
0.4040000000000003;-10284047033.0;-10288015137.0;263573.0;600.7095485116291;494.4050803994164;16.490379801245183;16514.335681559656;14916.666666666666;1597.6690148929915
0.4080000000000003;-10281377394.0;-10285768433.0;258719.0;667.4098021916583;565.5432331287265;10.44222566060455;16675.06342000729;16166.666666666666;508.39675334062485
0.4120000000000003;-10278439226.0;-10283323975.0;321334.0;734.5420437177673;611.7589745235368;34.28916763818131;16783.060381527263;17000.0;-216.93961847273613
0.4160000000000003;-10275230959.0;-10280599365.0;371267.0;802.0667272783946;688.1420952742621;27.769789942291254;16881.170890156824;15750.0;1131.1708901568238
0.4200000000000003;-10271750788.0;-10277556152.0;371739.0;870.0425097129414;767.0378545523063;16.187658146337753;16993.94560863669;16250.0;743.9456086366931
0.4240000000000003;-10267996494.0;-10274210815.0;340892.0;938.5735151469161;838.7612616994008;10.31466874998614;17132.751358493664;17666.666666666668;-533.915308173004
0.4280000000000003;-10263965508.0;-10270645752.0;363092.0;1007.7464263251239;895.6939723532274;22.907234617070117;17293.227794551967;18500.0;-1206.7722054480328
0.43200000000000033;-10259655367.0;-10266833496.0;413228.0;1077.535397129296;957.3475198980123;33.04410484440632;17447.242701042996;16666.666666666668;780.5760343763275
0.43600000000000033;-10255064132.0;-10262785034.0;504811.0;1147.8084740308323;1014.472515731141;50.82749703881393;17568.269225384087;15250.0;2318.2692253840855
0.44000000000000034;-10250190191.0;-10258417969.0;557701.0;1218.4853648601515;1096.2631855311542;42.1875288220283;17669.222707329824;15416.666666666666;2252.5560406631566
0.44400000000000034;-10245034447.0;-10253748779.0;590188.0;1288.93598765325;1171.1546131167338;39.675667491500235;17612.655698274637;17500.0;112.6556982746365
0.44800000000000034;-10239603188.0;-10248788452.0;613875.0;1357.8146020951149;1247.4053989387155;35.43091466078499;17219.653610466197;18166.666666666668;-947.013056200472
0.45200000000000035;-10233906289.0;-10243520508.0;609262.0;1424.2247644923639;1321.0182271333636;31.369978299848754;16602.540599312248;19250.0;-2647.459400687751
0.45600000000000035;-10227955973.0;-10238005371.0;629092.0;1487.5788335280347;1386.0030144710765;35.484113724308145;15838.517258917705;17916.666666666668;-2078.1494077489633
0.46000000000000035;-10221768541.0;-10232116699.0;536238.0;1546.8578971285615;1478.2120047959313;2.9168161164850517;14819.765900131699;18583.333333333332;-3763.567433201633
0.46400000000000036;-10215364634.0;-10225997314.0;459697.0;1600.9766582974794;1528.5056079781057;9.787052783970239;13529.690292229476;18833.333333333332;-5303.643041103857
