Zeit[sec];Sollposition[°];Istposition[°];Positionsschleppfehler[°];Sollgeschwindigkeit[°/s];Istgeschwindigkeit[°/s];Geschwindigkeitsdifferenz[°/s];Sollbeschleunigung[°/s*s];Istbeschleunigung[°/s*s];Beschleunigungsdifferenz[°/s*s]
0.0;0.0;5493.0;-5493.0;0.0;2.701376508302105;-3.030956508302105;0.0;-83.33333333333333;83.33333333333333
0.004;0.0;5493.0;-5493.0;0.0;1.6945988643735932;-2.024178864373593;0.0;0.0;0.0
0.008;0.0;-5493.0;5493.0;0.0;-3.955859241088878;4.285439241088878;0.0;0.0;0.0
0.012;0.0;5493.0;-5493.0;0.0;1.2998561180454637;-1.6294361180454637;0.0;0.0;0.0
0.016;0.0;5493.0;-5493.0;0.0;3.0156670026320196;-3.3452470026320196;0.0;0.0;0.0
0.02;0.0;0.0;0.0;0.0;-1.3541808407555032;1.3541808407555032;0.0;0.0;0.0
0.024;0.0;-5493.0;5493.0;0.0;-2.9747348535395504;3.3043148535395503;0.0;0.0;0.0
0.028;0.0;5493.0;-5493.0;0.0;1.292425625472368;-1.622005625472368;0.0;0.0;0.0
0.032;0.0;5493.0;-5493.0;0.0;-0.02726354100802905;-0.302316458991971;0.0;0.0;0.0
0.036000000000000004;4424.0;5493.0;-5493.0;1.1060649584228757;3.8937175669108273;-4.223297566910827;276.5162396057189;-83.33333333333333;359.8495729390522
0.04000000000000001;48514.0;5493.0;-3739.0;11.02268155490576;0.434133394628381;-0.21993592087868624;2479.1541491207213;83.33333333333333;2395.820815787388
0.04400000000000001;265229.0;-5493.0;27372.0;54.178715006703264;-4.225817008096005;10.899504650524264;10789.008362949377;-83.33333333333333;10872.341696282709
0.048000000000000015;981752.0;5493.0;128687.0;179.13076069226196;2.1610310420071652;33.6354582881436;31238.011421389674;83.33333333333333;31154.678088056342
0.05200000000000002;2800677.0;10986.0;537063.0;454.7310919142596;2.000707288555204;133.69045407325163;68900.0828054994;0.0;68900.0828054994
0.05600000000000002;6608614.0;82397.0;1616332.0;951.9842807903909;20.82669665085024;363.8230682230696;124313.29721903283;666.6666666666666;123646.63055236617
0.060000000000000026;13491324.0;543823.0;3755984.0;1720.677357347717;140.94404507805223;734.6843609537634;192173.2691393315;4333.333333333333;187839.93580599816
0.06400000000000003;24614151.0;3828735.0;5486454.0;2780.7065725735047;918.031888106229;665.0008338062489;265007.30380644696;33416.666666666664;231590.63713978027
0.06800000000000003;41146195.0;11771851.0;6089172.0;4133.010806049718;2049.7440468156424;452.06459041715834;338076.0583690533;117333.33333333333;220742.72503571995
0.07200000000000004;64228408.0;24559937.0;6543738.0;5770.5530688282515;3262.3496682170876;440.9375744931249;409385.56569463346;212750.0;196635.56569463343
0.07600000000000004;94925659.0;42797241.0;7403823.0;7674.312313452806;4661.485454837087;557.0909941884383;475939.8111561386;289083.3333333333;186856.4778228053
0.08000000000000004;134145367.0;68181152.0;8082989.0;9804.926625142622;6458.337231381901;542.4109975058209;532653.5779224539;336166.6666666667;196486.9112557872
0.08400000000000005;182563892.0;101755371.0;8540423.0;12104.630719864164;8505.901173060485;514.4369648047414;574926.0236803857;398416.6666666667;176509.357013719
0.08800000000000005;240571352.0;144569092.0;8543661.0;14501.86424500254;10818.652426727327;398.2065308633446;599308.381284594;474583.3333333333;124725.0479512606
0.09200000000000005;308222199.0;196671753.0;8607488.0;16912.71091447793;13128.8122823794;429.258524748293;602711.6673688479;538083.3333333334;64628.33403551451
0.09600000000000006;385221990.0;258414917.0;8639051.0;19249.94692346819;15575.553151922453;386.4708978615072;584309.0022475644;571333.3333333334;12975.66891423105
0.10000000000000006;470970653.0;331424561.0;6930460.0;21437.164674423835;18322.85870092848;-81.76868290250059;546804.4377389115;610833.3333333334;-64028.8955944219
0.10400000000000006;564633480.0;411877441.0;6891383.0;23415.705658438634;20172.65079715061;344.28202705395233;494635.24600369966;614750.0;-120114.75399630035
0.10800000000000007;665216966.0;502130127.0;5473940.0;25145.870329848498;22678.33212414052;-141.08619326720145;432541.16785246605;588166.6666666666;-155625.49881420057
0.11200000000000007;771647438.0;599952393.0;4012062.0;26607.616638225587;24524.940612200433;-194.120988948991;365436.57709427224;559416.6666666666;-193980.08957239438
0.11600000000000008;882842830.0;704119263.0;2706366.0;27798.846696276538;26039.03623200197;-161.36205428957692;297807.51451273775;503333.3333333333;-205525.8188205956
0.12000000000000008;997764451.0;813136597.0;1974460.0;28730.40383615665;27306.42874724288;-116.60532374538161;232889.2849700278;446000.0;-213110.7150299722
0.12400000000000008;1115454708.0;927279053.0;476869.0;29422.562784114925;28638.517411098474;-448.69058806117755;173039.73698956906;356666.6666666667;-183626.92967709762
0.12800000000000009;1235069377.0;1044173584.0;-420154.0;29903.665899000192;29219.793494093225;-245.62703267117104;120275.77872131678;306333.3333333333;-186057.55461201654
0.1320000000000001;1355897736.0;1162946777.0;-756313.0;30207.088458036622;29608.003878168685;-44.125625073611445;75855.63975910736;238000.0;-162144.36024089262
0.1360000000000001;1477376238.0;1284246826.0;-1971760.0;30369.62389473527;30330.225879697264;-427.38224058039486;40633.859174661666;170916.66666666666;-130282.807492005
0.1400000000000001;1599106076.0;1405673218.0;-2319133.0;30432.45802839405;30436.342251222653;-305.7368787080595;15708.533414695012;113250.0;-97541.466585305
0.1440000000000001;1720855932.0;1527072144.0;-2143715.0;30437.4626072932;30384.93767031337;-119.97627944014312;1251.1447247879914;73666.66666666667;-72415.52194187869
0.1480000000000001;1842531097.0;1648855591.0;-2190861.0;30418.789754058405;30393.16235249739;-90.53991551826766;-4668.213308698796;41000.0;-45668.213308698796
0.1520000000000001;1964121747.0;1771100464.0;-2715608.0;30397.66111002463;30479.99453085157;-212.90122180714025;-5282.161008443836;12083.333333333334;-17365.494341777172
0.1560000000000001;2085654471.0;1891928101.0;-1901152.0;30383.179557983854;30231.040377622678;65.41249046083249;-3620.388010193892;-3166.6666666666665;-453.7213435272256
0.16000000000000011;2207160388.0;2013706055.0;-2110927.0;30376.477760875056;30492.29294449606;-226.9053629327318;-1675.449277199732;-12583.333333333334;10907.884056133602
0.16400000000000012;2328660962.0;2134698486.0;-1580923.0;30375.14202811176;30333.172503689973;-47.42063070018776;-333.9331908237;-11333.333333333334;10999.400142509634
0.16800000000000012;2450165994.0;2256009521.0;-1388003.0;30376.256689251986;30194.370202973707;98.33704907395804;278.6652850563769;2666.6666666666665;-2388.0013816102896
0.17200000000000013;2571677188.0;2377380981.0;-1257090.0;30377.79695647393;30326.17230851141;-26.00590811496295;385.06680548562144;-2500.0;2885.0668054856214
0.17600000000000013;2693192576.0;2499131470.0;-1500130.0;30378.845521683645;30450.25492937527;-163.40187945407888;262.14130242897227;833.3333333333334;-571.1920309043611
0.18000000000000013;2814709619.0;2620003052.0;-858891.0;30379.259469391473;30305.264429295366;21.40578189714506;103.48692695697537;-5666.666666666667;5770.153593623642
0.18400000000000014;2936226607.0;2741066895.0;-406714.0;30379.24543775723;30239.110172616238;115.49048892883366;-3.5079085610050242;3583.3333333333335;-3586.8412418943385
0.18800000000000014;3057742855.0;2862910767.0;-733575.0;30379.06054866029;30404.96674888828;-69.72976829539039;-46.22227423442382;-1750.0;1703.7777257655762
0.19200000000000014;3179258370.0;2983980103.0;-286216.0;30378.877473878558;30235.34352422219;126.65573011363813;-45.768695433253015;4416.666666666667;-4462.43536209992
0.19600000000000015;3300773439.0;3105791016.0;-581167.0;30378.765799674544;30498.77198072343;-154.652955018988;-27.91855100349494;-333.3333333333333;305.4147823298384
0.20000000000000015;3422288349.0;3227206421.0;-481230.0;30378.72595552453;30455.380594105925;-105.42012460059777;-9.961037503671832;4250.0;-4259.961037503672
0.20400000000000015;3543803276.0;3348028564.0;211636.0;30378.73026535898;30158.857166219525;232.5916502131622;1.0774586125990027;-83.33333333333333;84.41079194593233
0.20800000000000016;3665318284.0;3469603271.0;151846.0;30378.75051505132;30320.71098128627;67.12767648213048;5.062423085291812;-1500.0;1505.0624230852918
0.21200000000000016;3786833366.0;3591540527.0;-270451.0;30378.769243968367;30454.406844362005;-91.89563556937719;4.682229261561588;583.3333333333334;-578.6511040717718
0.21600000000000016;3908348492.0;3712736206.0;48907.0;30378.78008123193;30376.72552704483;4.966715078942798;2.7093158905699966;-833.3333333333334;836.0426492239034
0.22000000000000017;4029863632.0;3834113159.0;187053.0;30378.783561115863;30374.121554108777;15.875056925546232;0.8699709833308589;6250.0;-6249.130029016669
0.22400000000000017;4151378769.0;3956039429.0;-224085.0;30378.782762374878;30436.706177743505;-71.36988029156055;-0.19968524611613248;2250.0;-2250.199685246116
0.22800000000000017;4272893897.0;4077015381.0;315101.0;30378.78057750086;30188.217476767568;209.4718072699834;-0.5462185044962098;1833.3333333333333;-1833.8795518378295
0.23200000000000018;4394409018.0;4198958130.0;-112514.0;30378.778697047997;30468.377171261516;-96.34611047490034;-0.47011321566969855;-3416.6666666666665;3416.196553450997
0.23600000000000018;4515924134.0;4320686646.0;-325905.0;30378.777673831508;30499.492685686437;-140.26714095380157;-0.255804122389236;-166.66666666666666;166.41086254427742
0.24000000000000019;4637439250.0;4441486816.0;389044.0;30378.77739236381;30258.64402447308;143.4769179038194;-0.07036692477413453;-3083.3333333333335;3083.2629664085594
0.2440000000000002;4758954366.0;4563127441.0;263535.0;30378.77751652159;30340.60362552948;53.986042699893005;0.031039445275382604;3250.0;-3249.9689605547246
0.2480000000000002;4880469482.0;4685399780.0;-493688.0;30378.777753820308;30471.16187983363;-122.005716593947;0.05932467956881737;3916.6666666666665;-3916.6073419870977
0.25200000000000017;5001984600.0;4806513062.0;-91854.0;30378.777943509755;30370.840852147656;2.425517731673608;0.04742236160382163;333.3333333333333;-333.2859109717295
0.25600000000000017;5123499718.0;4928104248.0;-167923.0;30378.778040143556;30445.41607212729;-76.71362448849322;0.0241584502873593;833.3333333333334;-833.309174883046
0.2600000000000002;5245014836.0;5049722900.0;-271457.0;30378.778061965593;30430.631936878555;-68.14137616649532;0.005455509381135926;-5583.333333333333;5583.338788842714
0.2640000000000002;5366529954.0;5170643921.0;322640.0;30378.778045465606;30165.670994385968;232.46545384348792;-0.004124996848986484;2166.6666666666665;-2166.6707916635155
0.2680000000000002;5488045072.0;5292559204.0;-77525.0;30378.778020147325;30431.43257481208;-57.30601951634162;-0.006329570169327781;-4416.666666666667;4416.660337096498
0.2720000000000002;5609560189.0;5414578857.0;-582060.0;30378.778001205454;30500.895812862494;-157.04137733850803;-0.004735467882710509;5333.333333333333;-5333.338068801216
0.2760000000000002;5731075307.0;5535620728.0;-108813.0;30378.77799220257;30387.214626044668;-14.965393259182747;-0.002250721081509255;-2833.3333333333335;2833.331082612252
0.2800000000000002;5852590425.0;5656975708.0;51324.0;30378.777990672952;30305.532417412127;76.32502033480705;-0.00038240432331804186;6416.666666666667;-6416.66704907099
0.2840000000000002;5974105543.0;5778940430.0;-398280.0;30378.777992718064;30388.060497602855;-33.179305953977746;0.0005112779035698622;-5083.333333333333;5083.333844611237
0.2880000000000002;6095620660.0;5899894409.0;162859.0;30378.777995387696;30260.671630395434;127.8779010973376;0.0006674081305391155;-2000.0;2000.0006674081305
0.2920000000000002;6217135778.0;6021776733.0;-204347.0;30378.777997261845;30506.061701103652;-139.5445273391888;0.00046853710955474526;-4333.333333333333;4333.333801870443
0.2960000000000002;6338650896.0;6143411865.0;-324362.0;30378.777998088783;30446.75914632572;-87.44287021067066;0.000206734512175899;3583.3333333333335;-3583.3331265988213
0.3000000000000002;6460166014.0;6264497681.0;104940.0;30378.777998175083;30266.576377150042;118.49802042870215;2.1575033315457404e-05;4416.666666666667;-4416.666645091634
0.3040000000000002;6581681131.0;6386094360.0;23379.0;30378.777997931444;30346.22804103135;33.95269708675551;-6.090976967243478e-05;750.0;-750.0000609097697
0.3080000000000002;6703196249.0;6508190918.0;-558061.0;30378.777997653422;30418.62507713825;-73.33073906034406;-6.950540409889072e-05;916.6666666666666;-916.6667361720707
0.3120000000000002;6824711116.0;6628925171.0;222803.0;30378.71514767046;30364.88200238524;27.26417543739808;-15.712495740444865;-11333.333333333334;11317.620837592889
0.3160000000000002;6946224105.0;6750444946.0;218046.0;30378.245931567002;30401.41706923364;-9.581230614840024;-117.30402586454147;2083.3333333333335;-2200.637359197875
0.32000000000000023;7067730289.0;6872266846.0;-89730.0;30376.54464279707;30371.519055737448;1.6266233410715358;-425.32219248278125;-1000.0;574.6778075172188
0.32400000000000023;7189218225.0;6993407593.0;279825.0;30371.98238634641;30226.027890659396;168.33575580609613;-1140.5641126648334;10666.666666666666;-11807.2307793315
0.32800000000000024;7310662005.0;7115399780.0;-213373.0;30360.943678635766;30539.419550311923;-177.47618242345197;-2759.6769276615305;-4083.3333333333335;1323.656405671803
0.33200000000000024;7432008668.0;7237111816.0;-454873.0;30336.664211774507;30409.020684636555;-68.68062144625947;-6069.866715314674;4916.666666666667;-10986.533381981342
0.33600000000000024;7553169347.0;7358038330.0;24146.0;30290.16835290835;30329.732815388885;23.097873931008507;-11623.964716539376;-7000.0;-4623.964716539376
0.34000000000000025;7674020189.0;7479008789.0;327179.0;30212.709123804438;30180.077087799393;157.92524493361634;-19364.80727597791;250.0;-19614.80727597791
0.34400000000000025;7794410150.0;7601011963.0;-637071.0;30097.488708221288;30377.33619233697;-155.83103679490523;-28805.103895787397;-13333.333333333334;-15471.770562454063
0.34800000000000025;7914163859.0;7721273804.0;-228987.0;29938.42599157621;30153.891477291145;-0.1508052759891143;-39765.67916126987;-5583.333333333333;-34182.34582793654
0.35200000000000026;8033059771.0;7841854248.0;-669033.0;29723.97645047054;30217.754131103364;-222.7981650544607;-53612.38527641672;-18083.333333333332;-35529.05194308338
0.35600000000000026;8150783783.0;7961341553.0;-739005.0;29431.001658041456;29787.009496897077;22.982310510094976;-73243.69810727148;-20500.0;-52743.698107271484
0.36000000000000026;8266879262.0;8079664307.0;-625460.0;29023.86835660193;29544.424859225965;27.12060405746888;-101783.32535988101;-44750.0;-57033.32535988102
0.36400000000000027;8380684722.0;8197185059.0;-1061022.0;28451.363606893377;29393.56886470976;-185.93387005681507;-143126.18742713856;-54250.0;-88876.18742713858
0.36800000000000027;8491253598.0;8313739014.0;-2417912.0;27642.217769426803;29075.423665888964;-421.23367047165084;-202286.45936664363;-68250.0;-134036.45936664363
0.3720000000000003;8597318741.0;8425618286.0;-1761561.0;26516.28441805281;28026.29608851893;1.9146967404303723;-281483.3378434978;-94250.0;-187233.3378434978
0.3760000000000003;8697363870.0;8535789185.0;-3130280.0;25011.28101880368;27373.960454348715;-361.23337714165973;-376250.84981228336;-135833.33333333334;-240417.51647895004
0.3800000000000003;8789772399.0;8641159058.0;-4795462.0;23102.131123556293;26269.96855943908;-631.5249277797375;-477287.4738118462;-199750.0;-277537.4738118462
0.3840000000000003;8872990861.0;8738662720.0;-5246514.0;20804.614489686148;24292.690666701088;-344.3302116034429;-574379.1584675364;-261750.0;-312629.1584675364
0.3880000000000003;8945713796.0;8828421021.0;-6195258.0;18180.73290396226;22300.99858741773;-470.32596532603566;-655970.3964309719;-368500.0;-287470.396430972
0.3920000000000003;9007087600.0;8909285889.0;-7949129.0;15343.450476607244;20098.116768000193;-797.3160573773021;-709320.606838754;-467166.6666666667;-242153.94017208728
0.3960000000000003;9056842660.0;8978208618.0;-8587179.0;12438.764342613731;17014.140079092944;-458.20175887273217;-726171.5334983782;-551500.0;-174671.53349837827
0.4000000000000003;9095316781.0;9034178467.0;-7723375.0;9618.52968847146;13889.85047832381;-144.84046640129782;-705058.6635355676;-657333.3333333334;-47725.3302022342
0.4040000000000003;9123421212.0;9078925781.0;-7120267.0;7026.10749533604;11091.751331754707;-181.3623380255467;-648105.5482838551;-731166.6666666666;83061.11838281152
0.4080000000000003;9142552283.0;9113016357.0;-6782043.0;4782.767460872784;8386.533420810745;-186.25639289412175;-560835.0086158141;-746500.0;185664.9913841859
0.4120000000000003;9154422737.0;9136334839.0;-5493131.0;2967.6134106928516;5764.644414843693;57.615922803570356;-453788.51254498307;-701000.0;247211.48745501693
0.4160000000000003;9160856269.0;9151127930.0;-3981294.0;1608.383000887528;3629.35443361447;207.99973865836546;-339807.6024513309;-651583.3333333334;311775.73088200245
0.4200000000000003;9163611855.0;9158977661.0;-2073683.0;688.8963240478386;1941.246213343166;373.6682660997717;-229871.66920992234;-589416.6666666666;359544.99745674426
0.4240000000000003;9164231780.0;9162438354.0;-527235.0;154.98123494887196;869.7618240025192;350.3892171797802;-133478.77227474164;-479166.6666666667;345687.894391925
0.4280000000000003;9163895592.0;9163377686.0;463814.0;-84.04701127564738;239.96888962733001;270.4549012630263;-59757.06155612983;-349166.6666666667;289409.60511053685
0.43200000000000033;9163342543.0;9163355713.0;739141.0;-138.26227184706966;21.692962040752175;85.99417682166904;-13553.815142855568;-223333.33333333334;209779.51819047777
0.43600000000000033;9162917290.0;9163284302.0;393984.0;-106.31307955234712;-14.914654928475619;-65.58826392013178;7987.298073680634;-113000.0;120987.29807368063
0.44000000000000034;9162699355.0;9163201904.0;-24728.0;-54.48375481223347;-25.82490503926575;-100.93602372668926;12957.331185028412;-44083.333333333336;57040.66451836175
0.44400000000000034;9162640282.0;9163163452.0;-330079.0;-14.76821670114928;-6.652171205379069;-99.10333321929784;9928.884527771048;-7750.0;17678.884527771046
0.44800000000000034;9162661437.0;9163119507.0;-442298.0;5.288610203878947;-12.93100876250118;-52.64772319355083;5014.206726257056;416.6666666666667;4597.54005959039
0.45200000000000035;9162702560.0;9163114014.0;-464998.0;10.280720066335668;-2.730995428547263;-32.217591023767135;1248.0274656141803;916.6666666666666;331.3607989475137
0.45600000000000035;9162733490.0;9163114014.0;-436396.0;7.732656030365737;0.3532751098498702;-19.386651817386685;-637.0160089924827;1583.3333333333333;-2220.349342325816
0.46000000000000035;9162747187.0;9163108521.0;-393939.0;3.424174521376997;-2.0801266369596125;-12.315011517135321;-1077.120377247185;500.0;-1577.120377247185
0.46400000000000036;9162748128.0;9163114014.0;-375275.0;0.23517644414647082;0.7793925714194775;-17.256552076643846;-797.2495193076315;500.0;-1297.2495193076315
0.46800000000000036;9162743386.0;9163108521.0;-361041.0;-1.1855248149532576;-0.6359764905199409;-18.841451888823222;-355.1753147749321;83.33333333333333;-438.50864810826545
0.47200000000000036;9162738294.0;9163103027.0;-356786.0;-1.2728999996442132;0.46783908129483465;-22.184422952276787;-21.843796172738905;-83.33333333333333;61.48953716059442
0.47600000000000037;9162735769.0;9163086548.0;-345154.0;-0.6311774104006992;-3.5182881003618243;-18.40279518869156;160.4306473108785;-250.0;410.4306473108785
0.48000000000000037;9162737478.0;9163081055.0;-343733.0;0.42720511667196803;-1.4506868086457252;-20.19124824733093;264.5956317681668;-166.66666666666666;431.26229843483344
0.4840000000000004;9162745243.0;9163081055.0;-344594.0;1.9413218584824858;-0.6356599532067776;-20.255285415792585;378.52918545262946;83.33333333333333;295.19585211929615
0.4880000000000004;9162761764.0;9163075562.0;-335015.0;4.130164726148444;-2.737571128502488;-16.342001584918066;547.2107169164896;250.0;297.2107169164896
0.4920000000000004;9162790546.0;9163053589.0;-301841.0;7.195534592130467;-7.526055837742985;-7.784112085319978;766.3424664955056;-83.33333333333333;849.675799828839
