Zeit[sec];Sollposition[°];Istposition[°];Positionsschleppfehler[°];Sollgeschwindigkeit[°/s];Istgeschwindigkeit[°/s];Geschwindigkeitsdifferenz[°/s];Sollbeschleunigung[°/s*s];Istbeschleunigung[°/s*s];Beschleunigungsdifferenz[°/s*s]
0.0;9817500292.0;9816981812.0;517710.0;0.07652002995936508;2.736657981477678;28.574882030437134;-28.13784193921658;166.66666666666666;-194.80450860588323
0.004;9817500300.0;9816987305.0;512798.0;0.0020663345115702527;3.40400715495646;27.50890216128583;-18.613423861948707;0.0;-18.613423861948707
0.008;9817500186.0;9816987305.0;512988.0;-0.028363451050378186;0.4756942889690399;30.351245494664195;-7.60744639048711;83.33333333333333;-90.94077972382044
0.012;9817500069.0;9817025757.0;474497.0;-0.029438056135020565;7.1820393125861886;21.27821833953788;-0.2686512711605948;416.6666666666667;-416.9353179378273
0.016;9817499995.0;9817069702.0;430437.0;-0.018407539855629804;9.132545356445014;16.665063427929955;2.7576290698476904;750.0;-747.2423709301523
0.02;9817499968.0;9817091675.0;408364.0;-0.006854711775799566;6.703084569707513;17.773697097982065;2.888207019957559;500.0;-497.1117929800424
0.024;9817499969.0;9817130127.0;369857.0;0.00040437490388013045;9.582026092894376;12.5955022511119;1.8147716699199241;166.66666666666666;-164.85189499674672
0.028;9817499982.0;9817152100.0;347868.0;0.0031260435231389495;7.8740709188878535;12.993964791409677;0.6804171548147048;-250.0;250.6804171548147
0.032;9817499994.0;9817190552.0;309422.0;0.0029826874129290012;5.357108270853758;13.209652669488776;-0.03583902755248706;250.0;-250.0358390275525
0.036000000000000004;9817500716.0;9817207031.0;292956.0;0.18065118150001674;5.353841257594526;12.226572000125122;44.417123521771934;-250.0;294.41712352177194
0.04000000000000001;9817575453.0;9817212524.0;287756.0;18.684235169756132;1.162769753202796;16.17601655601285;4625.895997064029;-250.0;4875.895997064029
0.04400000000000001;9817780660.0;9817212524.0;317820.0;51.301792832539334;-0.6700590209662914;27.255251109000707;8154.3894156958;-833.3333333333334;8987.722749029133
0.048000000000000015;9818238133.0;9817267456.0;388920.0;114.36803185143303;16.410774476312103;38.43259321998674;15766.559754723425;0.0;15766.559754723425
0.05200000000000002;9819052082.0;9817520142.0;440697.0;203.48729906586914;70.81475514464826;31.742517546975947;22279.81680360903;2666.6666666666665;19613.15013694236
0.05600000000000002;9820284510.0;9818074951.0;483219.0;308.1070431071271;143.3169312620461;35.009108807192774;26154.936010314486;8416.666666666666;17738.269343647822
0.060000000000000026;9822027076.0;9818981323.0;554628.0;435.64150925511956;232.0799616851136;45.64292800321451;31883.616536998117;14833.333333333334;17050.283203664785
0.06400000000000003;9824431273.0;9820431519.0;536670.0;601.049203387017;375.3945724986717;14.865087397399975;41351.92353297435;21250.0;20101.923532974353
0.06800000000000003;9827673628.0;9822546387.0;423705.0;810.5887423444661;540.9565336689875;-15.058430448410718;52384.88473936229;28750.0;23634.884739362293
0.07200000000000004;9831907059.0;9825216064.0;486665.0;1058.3575221942388;673.7509564573169;38.60811436324525;61942.19496244315;35250.0;26692.194962443155
0.07600000000000004;9837231789.0;9828676758.0;656361.0;1331.1825958305744;878.9244953942001;68.05458603755756;68206.26840908392;39166.666666666664;29039.601742417253
0.08000000000000004;9843733506.0;9833137207.0;856219.0;1625.4292308991087;1129.0517221831083;87.39804862178084;73561.65876713356;45416.666666666664;28144.9921004669
0.08400000000000005;9851483357.0;9838806152.0;972267.0;1937.462590183095;1429.3951101931111;75.18911442261424;78008.33982099658;55166.666666666664;22841.673154329917
0.08800000000000005;9860497448.0;9845749512.0;1018593.0;2253.5225668392686;1753.7237778590322;54.81328309760556;79014.9941640434;68166.66666666667;10848.32749737673
0.09200000000000005;9870759385.0;9853945313.0;1066581.0;2565.484074501762;2064.8965160207526;60.045456004808784;77990.3769156233;75666.66666666667;2323.7102489566296
0.09600000000000006;9882237989.0;9863547363.0;965966.0;2869.650998965645;2414.0152374012396;19.30123890186178;76041.73111597083;80083.33333333333;-4041.602217362495
0.10000000000000006;9894869406.0;9874127197.0;1123147.0;3157.854032665087;2651.132672316186;100.5097556683063;72050.75842486043;80083.33333333333;-8032.57490847291
0.10400000000000006;9908556304.0;9886014404.0;1164487.0;3421.7243106152155;2976.031305585131;75.97468499684464;65967.56948753216;75583.33333333333;-9615.763845801168
0.10800000000000007;9923183973.0;9899022217.0;1199818.0;3656.91703586943;3275.175186391704;57.59967885690094;58798.18131355364;73500.0;-14701.818686446359
0.11200000000000007;9938631941.0;9913298950.0;976800.0;3861.9918254583954;3604.8346151683404;-32.79817878597851;51268.69739724134;72333.33333333333;-21064.63593609199
0.11600000000000008;9954769993.0;9928295288.0;927854.0;4034.5128051383813;3749.265480377391;43.25366289590511;43130.24491999647;73583.33333333333;-30453.088413336856
0.12000000000000008;9971464855.0;9944055176.0;884735.0;4173.715434446274;3978.008194362663;4.26799380318198;34800.65732697324;59500.0;-24699.342673026764
0.12400000000000008;9988595685.0;9960803833.0;490853.0;4282.707362569316;4169.075656563513;-50.93086906098324;27247.98203076034;57416.666666666664;-30168.684635906324
0.12800000000000009;10006050525.0;9977546997.0;612143.0;4363.709701121326;4213.372675855279;39.4692946867508;20250.584638002692;40583.333333333336;-20332.748695330643
0.1320000000000001;10023735012.0;9995092163.0;323717.0;4421.121628482894;4393.034577751614;-59.426658186763234;14352.981840391976;38500.0;-24147.018159608022
0.1360000000000001;10041586736.0;10012686768.0;273105.0;4462.930593408403;4396.0870111416725;6.297299039700192;10452.24123137723;26083.333333333332;-15631.092101956103
0.1400000000000001;10059557416.0;10030391235.0;318087.0;4492.669760698788;4428.635931574315;27.811120224491788;7434.791822596253;19250.0;-11815.208177403747
0.1440000000000001;10077599370.0;10048430786.0;176444.0;4510.488455190104;4513.198535722941;-28.135161562215217;4454.673622828977;14916.666666666666;-10461.993043837689
0.1480000000000001;10095673334.0;10066431885.0;173587.0;4518.490807094023;4490.271597172573;19.703964541607093;2000.5879759796699;9000.0;-6999.41202402033
0.1520000000000001;10113754188.0;10084614258.0;45442.0;4520.21318859637;4553.225289389335;-36.94191311907525;430.5953755867904;8416.666666666666;-7986.071291079876
0.1560000000000001;10131830278.0;10102747192.0;-10984.0;4519.02236756863;4505.396899407409;13.070876259426768;-297.70525693493255;8166.666666666667;-8464.3719236016
0.16000000000000011;10149899194.0;10120588989.0;226144.0;4517.2286665953325;4468.986636304714;64.31295828158636;-448.42524332443645;-3083.3333333333335;2634.908090008897
0.16400000000000012;10167962959.0;10138710938.0;177468.0;4515.941114596726;4531.057992050097;-2.0917414238410856;-321.88799965160797;-1250.0;928.112000348392
0.16800000000000012;10186024551.0;10156690063.0;265259.0;4515.397840227055;4488.784991505369;43.859230807138374;-135.81859241776328;-3333.3333333333335;3197.51474091557
0.17200000000000013;10204086186.0;10174844971.0;173285.0;4515.408495270662;4550.1591993134325;-24.028840265663348;2.6637609016688657;1666.6666666666667;-1664.0029057649979
0.17600000000000013;10222148939.0;10192884521.0;195356.0;4515.687943690265;4493.935120638326;33.19148739530738;69.86210490072153;4333.333333333333;-4263.4712284326115
0.18000000000000013;10240213032.0;10210946045.0;195910.0;4516.023082759531;4538.7072165444715;-11.43338677374777;83.78476731650153;-3166.6666666666665;3250.451433983168
0.18400000000000014;10258278274.0;10229128418.0;76815.0;4516.310424830408;4528.059528762139;-7.631445060595979;71.83551771936436;4333.333333333333;-4261.497815613969
0.18800000000000014;10276344389.0;10247151489.0;118285.0;4516.528466474724;4516.256220230207;6.975925465162618;54.5104110790362;-2833.3333333333335;2887.8437444123697
0.19200000000000014;10294411171.0;10265322876.0;12479.0;4516.6952564526;4529.371488829113;-12.227557538486508;41.69749446896276;4166.666666666667;-4124.969172197704
0.19600000000000015;10312478519.0;10283417358.0;-15628.0;4516.836711722716;4506.8560981307555;8.799540376336154;35.363817529059816;-1333.3333333333333;1368.697150862393
0.20000000000000015;10330546406.0;10301473389.0;-4657.0;4516.9714756010735;4517.640732627303;-1.1697886553856733;33.6909695893155;-83.33333333333333;117.02430292264883
0.20400000000000015;10348614839.0;10319705200.0;-168909.0;4517.1080904996015;4545.875545359023;-39.12077070372288;34.15372463200583;416.6666666666667;-382.51294203466085
0.20800000000000016;10366683832.0;10337689819.0;-85428.0;4517.247999980518;4504.685129882336;7.2140417592281665;34.977370229171356;-1083.3333333333333;1118.3107035625046
0.21200000000000016;10384753391.0;10355927124.0;-254081.0;4517.389570990136;4550.774751339584;-48.85684939490875;35.39275240450479;1500.0;-1464.6072475954952
0.21600000000000016;10402823515.0;10373823853.0;-81596.0;4517.530878973755;4480.69254914055;31.715001751125783;35.326995904597425;-2000.0;2035.3269959045974
0.22000000000000017;10420894200.0;10391781006.0;31030.0;4517.670882667026;4496.182894719132;23.123673160958788;35.00092331773885;-4083.3333333333335;4118.334256651073
0.22400000000000017;10438965438.0;10409765625.0;116755.0;4517.809492402264;4491.7622448161765;32.828615457842716;34.65243380969696;-2333.3333333333335;2367.9857671430304
0.22800000000000017;10457037228.0;10427799683.0;153598.0;4517.947173343674;4512.010524103112;14.930374824032697;34.420235352399686;-1750.0;1784.4202353523997
0.23200000000000018;10475109567.0;10446113892.0;-89158.0;4518.084521116734;4557.778172245905;-45.264383668095434;34.33694326508885;6750.0;-6715.663056734911
0.23600000000000018;10493182456.0;10464093018.0;3721.0;4518.221992463957;4487.83602795814;30.388054907256446;34.367836805586194;3083.3333333333335;-3048.9654965277473
0.24000000000000019;10511255896.0;10482225952.0;-56660.0;4518.359801040492;4522.3353339696305;-7.596712383686281;34.45214413386566;1250.0;-1215.5478558661343
0.2440000000000002;10529329888.0;10500139160.0;103236.0;4518.497917169444;4486.305168053307;38.164817861786105;34.52903223796966;-4500.0;4534.52903223797
0.2480000000000002;10547404434.0;10518272095.0;43957.0;4518.636106961231;4525.226512021661;-4.175337566300186;34.54744794680664;-2416.6666666666665;2451.214114613473
0.25200000000000017;10565479530.0;10536201782.0;188479.0;4518.773970705695;4500.864229415543;28.996408572945256;34.46593611602111;-1083.3333333333333;1117.7992694493544
0.25600000000000017;10583555175.0;10554268799.0;196222.0;4518.910966049068;4522.828711441554;7.634566634480507;34.24883584307281;83.33333333333333;-49.08449749026052
0.2600000000000002;10601631362.0;10572297363.0;242969.0;4519.046417158249;4519.168339166202;14.237280257143539;33.86277729532594;83.33333333333333;-49.47055603800739
0.2640000000000002;10619708080.0;10590540161.0;76028.0;4519.179516834469;4560.546755238406;-37.0212076481248;33.274919054974816;3416.6666666666665;-3383.3917476116917
0.2680000000000002;10637785319.0;10608722534.0;-29951.0;4519.309327882074;4542.926230392017;-25.624894950639828;32.45276190136792;4500.0;-4467.547238098632
0.2720000000000002;10655863059.0;10626696167.0;73338.0;4519.434787404539;4493.157451693893;30.473033311677682;31.36488061613818;916.6666666666666;-885.3017860505284
0.2760000000000002;10673941278.0;10644823608.0;23331.0;4519.55471506776;4512.487662917815;8.270507092968728;29.981915805365134;-1666.6666666666667;1696.6485824720319
0.2800000000000002;10692019951.0;10662659912.0;264954.0;4519.667824996245;4470.873195832551;64.50564590222166;28.277482121211506;-5916.666666666667;5944.9441487878785
0.2840000000000002;10710099042.0;10680875244.0;128018.0;4519.7727404738935;4550.533845450073;-23.253906764222847;26.228869412079803;-1083.3333333333333;1109.562202745413
0.2880000000000002;10728178515.0;10698854370.0;227728.0;4519.8680107998625;4514.096341926731;19.276097663617293;23.81758149226698;250.0;-226.18241850773302
0.2920000000000002;10746258325.0;10717223511.0;-62173.0;4519.9521297238725;4597.121027460739;-81.0415085302966;21.02973100249983;4500.0;-4478.9702689975
0.2960000000000002;10764338420.0;10735356445.0;-115502.0;4520.0235553468;4534.701823393874;-21.73113897962139;17.856405731890845;5666.666666666667;-5648.810260934776
0.3000000000000002;10782418744.0;10753467407.0;-146543.0;4520.080731227148;4541.4171297421535;-30.229753759176674;14.293970087010166;-416.6666666666667;430.96063675367685
0.3040000000000002;10800499233.0;10771561890.0;-160842.0;4520.122108542341;4501.581878406241;8.813407774313418;10.344328798282731;583.3333333333334;-572.9890045350506
0.3080000000000002;10818579818.0;10789447632.0;33804.0;4520.1461691442;4492.606396797128;29.518644874009624;6.0151504646910325;-8333.333333333334;8339.348483798025
0.3120000000000002;10836660425.0;10807635498.0;-73536.0;4520.151449149216;4509.994573181115;5.724672568758251;1.3200012540437456;1416.6666666666667;-1415.346665412623
0.3160000000000002;10854740972.0;10825328979.0;313576.0;4520.136562800772;4451.6052846116945;87.35739699181886;-3.721587111158442;-6916.666666666667;6912.9450795555085
0.32000000000000023;10872821374.0;10843692627.0;30511.0;4520.100226228596;4569.37199388764;-47.395817880536924;-9.084143043992299;3416.6666666666665;-3425.750809710659
0.32400000000000023;10890901540.0;10861611328.0;192300.0;4520.041280727353;4511.55913774991;20.101105392435784;-14.736375310576477;-750.0;735.2636246894235
0.32800000000000024;10908981376.0;10880013428.0;-129491.0;4519.958715189894;4590.618030131586;-78.31042196347425;-20.64138436480789;7000.0;-7020.641384364808
0.33200000000000024;10927060783.0;10898052979.0;-89005.0;4519.851687309082;4511.562769561105;3.105820604503606;-26.756970202995944;3666.6666666666665;-3693.4236368696625
0.33600000000000024;10945139662.0;10916015625.0;28017.0;4519.719543176947;4506.967330755204;14.63045333467744;-33.03603303379532;-3166.6666666666665;3133.630633632871
0.34000000000000025;10963217910.0;10934000244.0;122598.0;4519.561834909255;4491.150580753781;36.00522058800561;-39.427066923053644;-3833.3333333333335;3793.90626641028
0.34400000000000025;10981295425.0;10951831055.0;370419.0;4519.378335978167;4449.59271166794;92.29021692714832;-45.874732771835625;-6500.0;6454.125267228164
0.34800000000000025;10999368588.0;10970172729.0;106706.0;4518.290609161444;4576.235128403038;-50.342763880852544;-271.93170418081536;2166.6666666666665;-2438.598370847482
0.35200000000000026;11017426539.0;10988190308.0;164921.0;4514.487620296105;4489.268756811544;39.57464766861631;-950.7472163347757;5083.333333333333;-6034.080549668109
0.35600000000000026;11035454092.0;11006575928.0;-153542.0;4506.888050196591;4599.695384877398;-92.1187479800983;-1899.8925248783962;4000.0;-5899.892524878396
0.36000000000000026;11053424619.0;11024719849.0;-251475.0;4492.6315173651055;4520.050926186011;-23.642633553241467;-3564.133207871464;6250.0;-9814.133207871464
0.36400000000000027;11071288254.0;11042633057.0;-159562.0;4465.908548061071;4499.067811056517;-7.3614446383317045;-6680.7423260086125;-6583.333333333333;-97.40899267527948
0.36800000000000027;11088978946.0;11060568237.0;-166262.0;4422.672802813015;4472.029930961475;0.11416099303096416;-10808.936312014112;-2666.6666666666665;-8142.2696453474455
0.3720000000000003;11106413988.0;11078052979.0;144688.0;4358.760138590869;4386.043617496237;71.5604930307054;-15978.166055536349;-14416.666666666666;-1561.4993888696827
0.3760000000000003;11123482939.0;11095702515.0;85496.0;4267.237657492228;4404.080097205624;-1.3645726766344524;-22880.620274660258;-7250.0;-15630.62027466026
0.3800000000000003;11140053563.0;11112769775.0;309627.0;4142.655866361977;4266.935421562091;74.4895915788702;-31145.44778256277;-12916.666666666666;-18228.781115896105
0.3840000000000003;11156013700.0;11129913940.0;38979.0;3990.034034363532;4277.996350190446;-57.278421753308066;-38155.45799961126;-12166.666666666666;-25988.79133294459
0.3880000000000003;11171110501.0;11146404419.0;-120005.0;3774.200034184619;4093.166780727774;-17.49341460470123;-53958.50004472822;-14083.333333333334;-39875.16671139489
0.3920000000000003;11185276573.0;11162158813.0;-252984.0;3541.5177571358727;3938.486550271414;-48.31209602572517;-58170.56926218663;-27750.0;-30420.569262186633
0.3960000000000003;11198326402.0;11177050781.0;-412112.0;3262.457212761334;3690.6630560854674;-32.17997674532262;-69765.13609363462;-35000.0;-34765.136093634625
0.4000000000000003;11210142143.0;11190487061.0;-119439.0;2953.935000767825;3361.527181932747;63.54446239672052;-77130.55299837732;-58500.0;-18630.552998377312
0.4040000000000003;11220626667.0;11202841187.0;93508.0;2621.1308552683386;3085.7716855642425;61.60689117830452;-83201.03637487159;-66000.0;-17201.03637487159
0.4080000000000003;11229713277.0;11214069214.0;160646.0;2271.652551872019;2791.0587966363505;42.37106784152638;-87369.57584907986;-74750.0;-12619.575849079865
0.4120000000000003;11237397798.0;11224088745.0;79188.0;1921.1300958048769;2479.1348388010933;10.134634059079872;-87630.61401678556;-72583.33333333333;-15047.280683452229
0.4160000000000003;11243722625.0;11232603149.0;103679.0;1581.2065534471742;2123.91741886241;17.02692052634211;-84980.88558942567;-76000.0;-8980.885589425669
0.4200000000000003;11248760875.0;11240145264.0;-284797.0;1259.5625403585627;1852.1774511354267;-80.85570605403063;-80411.00327215287;-78500.0;-1911.0032721528682
0.4240000000000003;11252625154.0;11245715332.0;-32179.0;966.0697590240112;1391.3216001039743;62.419127347246786;-73373.19533363788;-85333.33333333333;11960.137999695447
0.4280000000000003;11255465845.0;11250384521.0;-121041.0;710.172708617761;1157.8268558008076;-20.007444527482676;-63974.26260156254;-86916.66666666667;22942.40406510413
0.43200000000000033;11257452048.0;11253801270.0;-72469.0;496.5505956818445;837.4622086805329;24.519912514438147;-53405.52823397912;-82750.0;29344.471766020873
0.43600000000000033;11258748575.0;11256470947.0;-234248.0;324.1318139561609;666.9162387525067;-53.9968432885255;-43104.69543142091;-74166.66666666667;31061.971235245765
0.44000000000000034;11259509092.0;11258404541.0;-450078.0;190.12909798683916;463.9603158090487;-61.524060970026824;-33500.67899233044;-56583.333333333336;23082.6543410029
0.44400000000000034;11259901200.0;11259536133.0;-493622.0;98.02715305827216;291.6824016470313;-49.287624481156485;-23025.48623214175;-54416.666666666664;31391.180434524915
0.44800000000000034;11260076241.0;11260426025.0;-765925.0;43.76027802925993;208.5933500008434;-100.15156192125862;-13566.718757253058;-40333.333333333336;26766.61457608028
0.45200000000000035;11260141131.0;11260623779.0;-655475.0;16.222538040885816;44.31151696867496;-6.589172105885503;-6884.434997093528;-37500.0;30615.56500290647
0.45600000000000035;11260085465.0;11260684204.0;-583261.0;-13.916709829772655;26.097126670502128;-27.932822298651608;-7534.811967664617;-29083.333333333332;21548.521365668716
0.46000000000000035;11260046940.0;11260755615.0;-636936.0;-9.631213307283554;10.428349744945764;-44.21035861379634;1071.3741306222753;-19250.0;20321.374130622276
0.46400000000000036;11260028672.0;11260651245.0;-580729.0;-4.5669489865146415;-24.24485733836889;-22.639862925634528;1266.0660801922281;-11750.0;13016.066080192228
0.46800000000000036;11260024474.0;11260612793.0;-572871.0;-1.0494534098689614;-12.472562785282731;-29.548119179147307;879.37389416142;-2750.0;3629.37389416142
0.47200000000000036;11260026826.0;11260607300.0;-580186.0;0.5879316962030655;-4.7618666699603205;-33.25128370505359;409.34627651800673;-2333.3333333333335;2742.67960985134
0.47600000000000037;11260030477.0;11260590820.0;-565389.0;0.9128741056766217;-3.7717374804094437;-30.572468644695242;81.23560236838905;250.0;-168.76439763161093
0.48000000000000037;11260033015.0;11260596313.0;-568053.0;0.6343111834728468;1.9635545124411584;-35.33956228150606;-69.64073055094374;1500.0;-1569.6407305509438
