Zeit[sec];Sollposition[°];Istposition[°];Positionsschleppfehler[°];Sollgeschwindigkeit[°/s];Istgeschwindigkeit[°/s];Geschwindigkeitsdifferenz[°/s];Sollbeschleunigung[°/s*s];Istbeschleunigung[°/s*s];Beschleunigungsdifferenz[°/s*s]
0.0;-1216.0;988770.0;-986472.0;-0.3585376123398823;-6.840836845827372;-53.44496360812832;122.88919294731714;-333.3333333333333;456.22252628065047
0.004;-1313.0;961304.0;-961635.0;-0.024138042324826015;-5.005760856405076;-53.34995069016765;83.59989250376407;0.0;83.59989250376407
0.008;-840.0;922852.0;-924098.0;0.11817948047341616;-8.615265111214663;-47.05944851206723;35.579380699560545;-333.3333333333333;368.91271403289386
0.012;-325.0;873413.0;-874537.0;0.1287612368808119;-10.466505372264375;-41.975385368462796;2.645439101848935;-250.0;252.64543910184892
0.016;5.0;812988.0;-813626.0;0.08281175560739405;-17.98219125498467;-30.713827655201463;-11.487370318354461;-250.0;238.51262968164554
0.02;134.0;774536.0;-774732.0;0.03227591388099347;-10.70982965163621;-35.663609365326195;-12.633960431600146;-500.0;487.36603956839986
0.024;133.0;714111.0;-714057.0;-0.00038260061249838754;-14.646102602007192;-28.134273078765574;-8.164628623372964;-166.66666666666666;158.50203804329368
0.028;80.0;659180.0;-659048.0;-0.01319420352955597;-15.341046363726319;-24.182210204652442;-3.2029007292643956;-166.66666666666666;163.46376593740226
0.032;27.0;609741.0;-609630.0;-0.01311719909132511;-10.848178742335731;-25.73489210016872;0.019251109557714974;0.0;0.019251109557714974
0.036000000000000004;-5983.0;554810.0;-554752.0;-1.502884314208843;-10.14611143896323;-23.15209716552392;-372.4417787793795;-83.33333333333333;-289.1084454460462
0.04000000000000001;-65586.0;499878.0;-502234.0;-14.90081218022853;-11.755829987661986;-18.981997046160142;-3349.4819665049217;83.33333333333333;-3432.8152998382548
0.04400000000000001;-358492.0;450439.0;-480018.0;-73.22648349750911;-11.875974295071313;-23.731329971201287;-14581.417829320144;83.33333333333333;-14664.751162653478
0.048000000000000015;-1325550.0;384521.0;-565890.0;-241.76449634337385;-20.14545629128355;-51.75546974404243;-42134.50321146619;166.66666666666666;-42301.16987813285
0.05200000000000002;-3772334.0;208740.0;-948939.0;-611.6957985257367;-49.099424286362115;-147.544335917707;-92482.8255455907;-1333.3333333333333;-91149.49221225738
0.05600000000000002;-8870233.0;-554810.0;-1735185.0;-1274.4747690002828;-209.71014689091277;-281.8499031721525;-165694.74261863652;-7750.0;-157944.74261863652
0.060000000000000026;-18027250.0;-2867432.0;-2911803.0;-2289.254055634411;-622.7867496339428;-424.23116853981276;-253694.82165853208;-29250.0;-224444.82165853208
0.06400000000000003;-32696634.0;-8289185.0;-4181792.0;-3667.345829325507;-1437.1692663848808;-486.6736833093562;-344522.943422774;-75583.33333333333;-268939.61008944066
0.06800000000000003;-54229035.0;-18643799.0;-5145978.0;-5383.10015111543;-2670.180580989514;-468.27803784683056;-428938.5804474807;-154916.66666666666;-274021.91378081404
0.07200000000000004;-83793529.0;-35200195.0;-5947746.0;-7391.122989449196;-4234.442394854106;-461.96321791335595;-502005.70958344155;-249916.66666666666;-252089.0429167749
0.07600000000000004;-122295665.0;-59002075.0;-6822653.0;-9625.533618087555;-6068.779538840422;-509.77622433825945;-558602.6571595896;-342333.3333333333;-216269.32382625632
0.08000000000000004;-170259188.0;-91647949.0;-7237846.0;-11990.880098994649;-8268.689744138745;-430.84714808112585;-591336.6202267734;-425666.6666666667;-165669.95356010675
0.08400000000000005;-227744252.0;-133423462.0;-7663392.0;-14371.265349405716;-10563.654491769494;-446.4133176817795;-595096.3126027668;-497166.6666666667;-97929.64593610015
0.08800000000000005;-294348391.0;-185443726.0;-7326355.0;-16651.034021933705;-13140.216449921922;-220.1710553046105;-569942.1681319972;-557833.3333333334;-12108.834798663906
0.09200000000000005;-369257364.0;-247560425.0;-6254501.0;-18727.24235518968;-15598.608643950472;-37.87185290045636;-519052.0833139935;-605916.6666666666;86864.5833526731
0.09600000000000006;-451334524.0;-317510376.0;-6147994.0;-20519.289077886668;-17594.494452817053;-235.2453529318409;-448011.68067424715;-602166.6666666666;154154.98599241948
0.10000000000000006;-539266298.0;-396578979.0;-4781777.0;-21982.942424996745;-19856.28522625576;143.78300944944203;-365913.3367775194;-576083.3333333334;210169.996555814
0.10400000000000006;-631734996.0;-482316284.0;-3400894.0;-23117.173445366174;-21426.013742804043;132.85561613757818;-283557.75509235717;-531250.0;247692.24490764283
0.10800000000000007;-727554298.0;-573107300.0;-2306167.0;-23954.824382738287;-22763.41529622656;200.9740678437629;-209412.73434302822;-459250.0;249837.26565697178
0.11200000000000007;-825746196.0;-668089600.0;-1094443.0;-24547.97329460232;-23722.347306151063;214.03765729772203;-148287.22796600868;-387833.3333333333;239546.10536732464
0.11600000000000008;-925577413.0;-765670166.0;-254244.0;-24957.803031235104;-24456.5612100558;256.2160226763481;-102457.43415819561;-277666.6666666667;175209.23250847106
0.12000000000000008;-1026552955.0;-865184326.0;431955.0;-25243.884192263573;-24848.230274037065;167.15867435493783;-71520.29025711727;-220750.0;149229.70974288273
0.12400000000000008;-1128362524.0;-966313477.0;1285788.0;-25452.390999831056;-25295.509985175162;303.8288697235075;-52126.70189187065;-146000.0;93873.29810812935
0.12800000000000009;-1230805487.0;-1067272339.0;945134.0;-25610.739629756536;-25248.491318634555;-19.67826810774568;-39587.15748137001;-104166.66666666667;64579.50918529666
0.1320000000000001;-1333727905.0;-1169467163.0;1084145.0;-25730.603302636307;-25552.098777040093;103.19543921652439;-29965.918219942978;-54833.333333333336;24867.415113390358
0.1360000000000001;-1436991159.0;-1271854248.0;841882.0;-25815.812318191074;-25648.985506237506;42.1625470575018;-21302.253888691666;-42666.666666666664;21364.412777974998
0.1400000000000001;-1540470766.0;-1375438843.0;1371732.0;-25869.900434614494;-25837.466887225422;156.08578752079484;-13522.029105854926;-41000.0;27477.970894145074
0.1440000000000001;-1644066713.0;-1478583984.0;1169836.0;-25898.985595253063;-25836.522442897836;69.95446324718796;-7271.290159642376;-35750.0;28478.709840357624
0.1480000000000001;-1747709439.0;-1581608276.0;669662.0;-25910.680319344567;-25722.53635781986;-118.39924597501886;-2923.681022875826;-21000.0;18076.318977124174
0.1520000000000001;-1851358599.0;-1685313721.0;761294.0;-25912.288611592587;-25946.980784999967;89.20647523781372;-402.0730620050017;83.33333333333333;-485.406395338335
0.1560000000000001;-1954996905.0;-1788810425.0;612995.0;-25909.575430442554;-25890.362960211427;15.893201894054073;678.2952875082628;-10333.333333333334;11011.628620841597
0.16000000000000011;-2058621591.0;-1892647705.0;805456.0;-25906.170103573622;-25916.88997095095;54.01387687830356;851.3317172328243;-9666.666666666666;10517.99838389949
0.16400000000000012;-2162236441.0;-1995765381.0;290163.0;-25903.71125042438;-25835.03329094781;-55.79809814523469;614.7132873102237;-3166.6666666666665;3781.37995397689
0.16800000000000012;-2265846421.0;-2099443359.0;347275.0;-25902.49376791744;-25906.35880034907;21.98014054241139;304.37062673536275;4333.333333333333;-4028.9627065979703
0.17200000000000013;-2369455147.0;-2203450928.0;741867.0;-25902.180402534723;-25996.87034764128;138.13942266508093;78.34134567929141;-1416.6666666666667;1495.0080123459582
0.17600000000000013;-2473064391.0;-2306563110.0;244538.0;-25902.30970378603;-25758.878807287998;-128.82556983808536;-32.325312827197195;-7416.666666666667;7384.34135383947
0.18000000000000013;-2576674521.0;-2409625854.0;-301657.0;-25902.531404966852;-25784.097346657854;-136.23557792795327;-55.42529520516837;11500.0;-11555.425295205168
0.18400000000000014;-2680285004.0;-2513759766.0;222663.0;-25902.619375789352;-26044.912627331913;155.8755601163175;-21.992705625052622;5000.0;-5021.992705625053
0.18800000000000014;-2783894571.0;-2617899170.0;751802.0;-25902.390639168305;-26001.675346596272;144.21848160319132;57.184155261893466;-12833.333333333334;12890.517488595227
0.19200000000000014;-2887500860.0;-2720725708.0;-31778.0;-25901.570873950604;-25723.633997092657;-180.80085274641533;204.9413044251196;-10250.0;10454.94130442512
0.19600000000000015;-2991098850.0;-2824079590.0;-286168.0;-25899.496334901516;-25851.93283317919;-67.30420214278638;518.6347622720859;12000.0;-11481.365237727914
0.20000000000000015;-3094678247.0;-2928394775.0;425999.0;-25894.847930954867;-26099.433869247056;224.24065430292103;1162.1009866621534;10083.333333333334;-8921.23234667118
0.20400000000000015;-3198221581.0;-3031864014.0;304571.0;-25885.83237986307;-25788.433049166055;-90.95816170415128;2253.8877729493834;-16250.0;18503.887772949383
0.20800000000000016;-3301704286.0;-3134723511.0;-401140.0;-25870.67490489415;-25784.550318128477;-130.81872442838358;3789.368742230181;4250.0;-460.63125776981906
0.21200000000000016;-3405096170.0;-3238374023.0;-270134.0;-25847.969977200264;-25946.97081564293;50.887272274820134;5676.231923471278;10500.0;-4823.768076528722
0.21600000000000016;-3508358414.0;-3342947388.0;856180.0;-25815.559582371785;-26054.277751142057;243.88698198417842;8102.598707119796;-2583.3333333333335;10685.93204045313
0.22000000000000017;-3611423363.0;-3445614624.0;182400.0;-25766.236079796672;-25711.599675560396;-112.70912318850242;12330.8756437782;-14500.0;26830.8756437782
0.22400000000000017;-3714158081.0;-3548034668.0;-582336.0;-25683.678341521176;-25591.320654358642;-239.81299457903515;20639.434568874094;14833.333333333334;5806.10123554076
0.22800000000000017;-3816320344.0;-3651811523.0;259346.0;-25540.56438807163;-25971.6280360536;253.39656462057974;35778.48836238627;30416.666666666668;5361.821695719602
0.23200000000000018;-3917484476.0;-3754791870.0;730009.0;-25291.031890203598;-25693.39005443216;109.770962550494;62383.1244670082;-4833.333333333333;67216.45780034154
0.23600000000000018;-4016934183.0;-3856283569.0;451834.0;-24862.42556840473;-25343.22269644726;-72.13447348598129;107151.58044971668;8833.333333333334;98318.24711638334
0.24000000000000019;-4113598712.0;-3956824951.0;502979.0;-24166.131197561463;-25169.254117761164;76.87457269731749;174073.59271081715;42333.333333333336;131740.2593774838
0.2440000000000002;-4206096700.0;-4056740112.0;2062667.0;-23124.495935436807;-24889.67946737552;424.5723922437901;260408.81553116377;67666.66666666667;192742.1488644971
0.2480000000000002;-4292857113.0;-4152590332.0;2884007.0;-21690.102149281476;-23876.449126816427;292.27060530725794;358598.44653883285;86916.66666666667;271681.77987216617
0.25200000000000017;-4372267595.0;-4243079224.0;3125356.0;-19852.619556527134;-22527.032296998634;152.66911375549535;459370.64818858565;159500.0;299870.64818858565
0.25600000000000017;-4442863588.0;-4327849731.0;4015964.0;-17648.997335092736;-21147.501706403797;418.4858833931503;550905.5553585995;271166.6666666667;279738.8886919328
0.2600000000000002;-4503546493.0;-4405847168.0;6054661.0;-15170.725565999805;-19335.535027806836;709.1304109143312;619567.9422732329;341583.3333333333;277984.6089398995
0.2640000000000002;-4553736606.0;-4473385620.0;6875857.0;-12547.52759201358;-16745.888530828015;479.1268002305769;655799.4934965563;425583.3333333333;230216.16016322304
0.2680000000000002;-4593427489.0;-4529734497.0;6643972.0;-9922.720234653867;-13977.93341997673;231.3820595471334;656201.839339928;535250.0;120951.83933992803
0.2720000000000002;-4623187731.0;-4575454102.0;6274764.0;-7440.060181312516;-11304.131728704959;158.41478064072908;620665.0133353377;640250.0;-19584.98666466221
0.2760000000000002;-4644102097.0;-4610824585.0;5830189.0;-5228.591287951468;-8747.084270483245;143.1315648063719;552867.223340262;676166.6666666666;-123299.44332640468
0.2800000000000002;-4657627569.0;-4636774292.0;5468718.0;-3381.367850057681;-6385.670632167399;135.99955662098546;461805.85947344673;651916.6666666666;-190110.8071932199
0.2840000000000002;-4665413629.0;-4653742676.0;4400486.0;-1946.5149887027853;-4152.058689763512;-93.06603347631881;358713.21533872397;616666.6666666666;-257953.45132794266
0.2880000000000002;-4669143234.0;-4663438110.0;2802741.0;-932.4011103374705;-2413.792784914289;-241.33744002354024;253528.4695913287;570083.3333333334;-316554.8637420047
0.2920000000000002;-4670373735.0;-4668750000.0;1903262.0;-307.6253326115431;-1321.3452646831834;-117.3010377615883;156193.94443148185;483583.3333333333;-327389.3889018515
0.2960000000000002;-4670360704.0;-4670837402.0;1228147.0;3.25778858875755;-498.6302298968248;-118.31030019992971;77720.78030007516;367750.0;-290029.2196999248
0.3000000000000002;-4669941265.0;-4670919800.0;558442.0;104.85966761281894;-57.278800571125004;-97.24050760586678;25400.469756015347;251916.66666666666;-226516.1969106513
0.3040000000000002;-4669547729.0;-4670897827.0;703349.0;98.3840318361577;-0.9904048280790448;84.91111013219636;-1618.9089441653089;151500.0;-153118.9089441653
0.3080000000000002;-4669320849.0;-4670782471.0;994780.0;56.71998171834971;26.02926131768152;135.3543943816072;-10416.012529451998;76750.0;-87166.012529452
0.3120000000000002;-4669245675.0;-4670738525.0;1278445.0;18.793492684575764;10.788740377184004;147.8207897663931;-9481.622258443485;19250.0;-28731.622258443487
0.3160000000000002;-4669256496.0;-4670694580.0;1402208.0;-2.70521610046894;9.460123279970139;116.59920343154783;-5374.677196261176;666.6666666666666;-6041.343862927843
0.32000000000000023;-4669294506.0;-4670650635.0;1400229.0;-9.502448649402698;16.012826151564717;78.49272993876491;-1699.3081372334395;-916.6666666666666;-782.6414705667729
0.32400000000000023;-4669326701.0;-4670645142.0;1373639.0;-8.048683506857621;4.224543151959777;72.91955324544995;363.4412856362692;-916.6666666666666;1280.107952302936
0.32800000000000024;-4669342970.0;-4670612183.0;1305135.0;-4.067208567979176;9.802068670332432;59.6198053786766;995.3687347196114;-583.3333333333334;1578.7020680529447
0.33200000000000024;-4669345985.0;-4670606689.0;1273726.0;-0.7539842418991577;3.354450323846191;66.59050061687721;828.3060815200045;-166.66666666666666;994.9727481866712
0.33600000000000024;-4669342304.0;-4670573730.0;1229660.0;0.9203786169730084;3.109834973484278;67.89286918001025;418.5907147180415;-83.33333333333333;501.9240480513748
0.34000000000000025;-4669337617.0;-4670529785.0;1185278.0;1.1717721366981213;10.86072920819372;60.14641183777107;62.84837993127823;166.66666666666666;-103.81828673538843
0.34400000000000025;-4669335874.0;-4670529785.0;1189319.0;0.43580026876090133;1.4245626610554756;70.94481883862792;-183.99296698430499;0.0;-183.99296698430499
0.34800000000000025;-4669340605.0;-4670463867.0;1126915.0;-1.1828671025044366;13.36451882756129;55.12887895412549;-404.6668428163345;250.0;-654.6668428163345
0.35200000000000026;-4669356625.0;-4670436401.0;1098641.0;-4.005007595280204;6.516338154125958;59.200458128785826;-705.5351231939418;333.3333333333333;-1038.8684565272752
0.35600000000000026;-4669390830.0;-4670381470.0;1034541.0;-8.551166667747252;13.379701079454273;46.400441587763204;-1136.539768116762;416.6666666666667;-1553.2064347834287
0.36000000000000026;-4669451809.0;-4670326538.0;956445.0;-15.244855953531408;12.033942620918156;39.561804724717504;-1673.4223214460392;250.0;-1923.4223214460392
0.36400000000000027;-4669549042.0;-4670282593.0;867786.0;-24.308070294188948;8.926963598892092;31.96172417127866;-2265.803585164385;166.66666666666666;-2432.4702518310514
0.36800000000000027;-4669692505.0;-4670238647.0;748644.0;-35.86596212514499;6.397574627060443;19.72200738172566;-2889.4729577390103;166.66666666666666;-3056.139624405677
0.3720000000000003;-4669892606.0;-4670194702.0;589349.0;-50.02504394592146;5.388580911081284;1.1348700473594775;-3539.770455194118;-166.66666666666666;-3373.1037885274513
0.3760000000000003;-4670159789.0;-4670194702.0;423701.0;-66.79596208909409;2.416497796967626;-18.40653260591247;-4192.729535793157;-1000.0;-3192.7295357931575
0.3800000000000003;-4670503753.0;-4670194702.0;197335.0;-85.99083123573884;0.26931907441839575;-45.02070664842259;-4798.717286661187;-916.6666666666666;-3882.0506199945203
0.3840000000000003;-4670932697.0;-4670194702.0;-99898.0;-107.23612160853233;-0.3313021190613508;-79.97073856834403;-5311.3225931983725;-916.6666666666666;-4394.655926531706
0.3880000000000003;-4671452871.0;-4670194702.0;-477105.0;-130.0433493096514;0.4533547604419291;-123.38144173486636;-5701.806925279769;0.0;-5701.806925279769
0.3920000000000003;-4672068312.0;-4670205688.0;-930736.0;-153.86038660612476;-1.0588904883638024;-170.93961641748123;-5954.2593241183395;-250.0;-5704.2593241183395
0.3960000000000003;-4672780910.0;-4670255127.0;-1438709.0;-178.14953095292987;-11.925817852288485;-213.74951850438782;-6072.286086701276;-416.6666666666667;-5655.619420034609
0.4000000000000003;-4673590872.0;-4670337524.0;-2009716.0;-202.490469193342;-19.554259531188755;-264.3798003376357;-6085.234560103032;-1416.6666666666667;-4668.567893436366
0.4040000000000003;-4674497397.0;-4670469360.0;-2628512.0;-226.63110038812485;-32.50897628072277;-312.8597571522093;-6035.157798695714;-2000.0;-4035.157798695714
0.4080000000000003;-4675499263.0;-4670760498.0;-3185051.0;-250.4665871607285;-80.32321866747364;-322.6990709121977;-5958.871693150912;-3500.0;-2458.871693150911
0.4120000000000003;-4676595193.0;-4671469116.0;-3420194.0;-273.9824173250633;-182.08640631278976;-259.0652831402439;-5878.957541083701;-9000.0;3121.0424589163
0.4160000000000003;-4677783987.0;-4672617188.0;-3310724.0;-297.1984991628365;-289.64587892892587;-168.64814640178457;-5804.020459443308;-17250.0;11445.979540556693
0.4200000000000003;-4679064526.0;-4674116821.0;-2943289.0;-320.13462918370607;-373.3085345717259;-86.33824838335812;-5734.032505217385;-24166.666666666668;18432.63416144928
0.4240000000000003;-4680435715.0;-4675671387.0;-2613348.0;-342.79728605032716;-387.211519660525;-75.74564494900346;-5665.664216655273;-21666.666666666668;16001.002450011394
0.4280000000000003;-4681896431.0;-4677286377.0;-2314301.0;-365.17908363327786;-411.5239582138248;-56.31972892664538;-5595.449395737674;-13083.333333333334;7487.8839375956595
0.43200000000000033;-4683445473.0;-4679126587.0;-1880245.0;-387.26050019042714;-460.70333423599976;-3.649895835246525;-5520.35413928732;-8083.333333333333;2562.9791940460127
0.43600000000000033;-4685081483.0;-4680983276.0;-1518767.0;-409.0023144269043;-461.24010464165735;-3.6887922891826292;-5435.453559119295;-6833.333333333333;1397.8797742140373
0.44000000000000034;-4686802827.0;-4682779541.0;-1305508.0;-430.3361486355233;-454.70911231914164;-19.372774200102583;-5333.458552154738;-5166.666666666667;-166.79188548807122
0.44400000000000034;-4688607424.0;-4684691162.0;-1063221.0;-451.1491951501161;-484.8635124016069;3.7367994949871104;-5203.261628648207;-2250.0;-2953.2616286482066
0.44800000000000034;-4690492313.0;-4686663208.0;-845027.0;-471.2221868235808;-493.43941157425195;4.274598134344217;-5018.247918366171;-1833.3333333333333;-3184.9145850328377
0.45200000000000035;-4692452980.0;-4688602295.0;-741884.0;-490.1666591207916;-484.312660351973;-19.186250911779837;-4736.118074302709;-3083.3333333333335;-1652.7847409693757
0.45600000000000035;-4694482895.0;-4690607300.0;-651343.0;-507.47876663706074;-503.9394684677795;-13.75687042868907;-4328.026879067281;-2500.0;-1828.0268790672808
0.46000000000000035;-4696573618.0;-4692716675.0;-529646.0;-522.6808329464693;-530.4734708836972;1.7750744017648685;-3800.516577352141;-2000.0;-1800.5165773521412
0.46400000000000036;-4698715307.0;-4694831543.0;-468397.0;-535.4221212810431;-527.4224477889426;-14.086082477528635;-3185.3220836434557;-3500.0;314.6779163565441
0.46800000000000036;-4700897329.0;-4696995850.0;-414664.0;-545.5055279655536;-549.0759837346226;-3.44733634657905;-2520.851671127616;-3166.6666666666665;645.8149955390504
0.47200000000000036;-4703108850.0;-4699204102.0;-363794.0;-552.8802809591958;-546.3520204407312;-14.820998051114657;-1843.6882484105581;-3333.3333333333335;1489.6450849227754
