Zeit[sec];Sollposition[°];Istposition[°];Positionsschleppfehler[°];Sollgeschwindigkeit[°/s];Istgeschwindigkeit[°/s];Geschwindigkeitsdifferenz[°/s];Sollbeschleunigung[°/s*s];Istbeschleunigung[°/s*s];Beschleunigungsdifferenz[°/s*s]
0.0;-1060.0;-972290.0;974020.0;-0.2776709198274265;4.598179144424211;52.939683491118544;102.1047756560856;166.66666666666666;-64.56189101058106
0.004;-1090.0;-966797.0;966423.0;-0.0074981782746981075;1.2460672097726093;56.213039815625216;67.5431853881821;-166.66666666666666;234.20985205484874
0.008;-678.0;-939331.0;938266.0;0.10292345051742761;6.082508046778835;50.040507223290874;27.60540719803143;166.66666666666666;-139.06125946863523
0.012;-251.0;-922852.0;921926.0;0.10682290872155942;8.162348551431291;47.18791067736461;0.9748645510329508;-83.33333333333333;84.30819788436628
0.016;16.0;-911865.0;911355.0;0.06679608503104979;4.511865493616963;50.273257029418176;-10.006705922627406;166.66666666666666;-176.67337258929408
0.02;115.0;-889893.0;889746.0;0.024873931754541265;6.077843586840302;47.39784646331917;-10.480538319127133;0.0;-10.480538319127133
0.024;109.0;-867920.0;867974.0;-0.0014673713457168827;9.497663868756838;42.631185269703785;-6.585325775064537;166.66666666666666;-173.2519924417312
0.028;64.0;-840454.0;840565.0;-0.011343583763563977;8.785444250428496;41.6631314038465;-2.4690531044617736;250.0;-252.46905310446178
0.032;21.0;-807495.0;807585.0;-0.010823380448276783;7.531515037564602;40.91835617075468;0.13005082882179855;333.3333333333333;-333.2032825045115
0.036000000000000004;-6472.0;-752563.0;752609.0;-1.6234074711253617;14.61687363714874;30.528586900006168;-403.14602266927125;416.6666666666667;-819.8126893359379
0.04000000000000001;-70940.0;-675659.0;673106.0;-16.116907611327683;20.5578960853137;19.178273090844677;-3623.37503505058;666.6666666666666;-4290.041701717247
0.04400000000000001;-387768.0;-549316.0;517322.0;-79.2070838665458;31.152063340879444;-7.47314842174902;-15772.54406380453;1500.0;-17272.54406380453
0.048000000000000015;-1435010.0;-494385.0;298205.0;-261.8105395080179;12.593284492733961;-35.747238352867654;-45650.86391036802;1250.0;-46900.86391036802
0.05200000000000002;-4091793.0;-510864.0;-290263.0;-664.1956486844958;-3.6317823789347288;-165.02082946896493;-100596.27729411949;-916.6666666666666;-99679.61062745283
0.05600000000000002;-9648709.0;-637207.0;-1845040.0;-1389.228967077763;-38.303210323096636;-492.67919558316464;-181258.32959831678;-3333.3333333333335;-177924.99626498343
0.060000000000000026;-19680088.0;-1384277.0;-4895179.0;-2507.8445689959385;-229.36923787674522;-1013.6438076560003;-279653.9004795439;-9166.666666666666;-270487.2338128772
0.06400000000000003;-35860163.0;-6108398.0;-7485036.0;-4045.0185157916876;-1304.0310301774912;-973.5654625920874;-384293.48669893725;-50666.666666666664;-333626.8200322706
0.06800000000000003;-59837890.0;-17199097.0;-8837360.0;-5994.4315355887065;-2847.964235443965;-793.0329968210799;-487353.25494925474;-165083.33333333334;-322269.92161592137
0.07200000000000004;-93178986.0;-34870605.0;-10401547.0;-8335.273645079433;-4519.318541750889;-913.6977182173741;-585210.5273726815;-292833.3333333333;-292377.1940393482
0.07600000000000004;-137291244.0;-61391602.0;-11525017.0;-11028.063853503478;-6766.525650945962;-836.0918834849826;-673197.5521060112;-408416.6666666667;-264780.88543934457
0.08000000000000004;-193304751.0;-98437500.0;-12035949.0;-14003.376145810485;-9386.638377863836;-724.7255782734283;-743828.0730767519;-497750.0;-246078.07307675193
0.08400000000000005;-261971702.0;-146969604.0;-12271650.0;-17166.73699912831;-12271.01128419716;-657.2383363239951;-790840.2133294558;-593333.3333333334;-197506.87999612238
0.08800000000000005;-343611674.0;-207976685.0;-12225235.0;-20409.99211680696;-15414.503900540314;-559.1760256346206;-810813.7794196628;-683833.3333333334;-126980.44608632938
0.09200000000000005;-438079222.0;-282057495.0;-11880835.0;-23616.885820426298;-18695.47017674167;-451.4815831850974;-801723.4259048346;-746416.6666666666;-55306.75923816796
0.09600000000000006;-544778148.0;-369794312.0;-10793909.0;-26674.730113128353;-22064.61494366569;-245.49151095707202;-764461.0731755138;-797750.0;33288.926824486225
0.10000000000000006;-662743581.0;-470044556.0;-9785602.0;-29491.35692628464;-25221.194645453612;-176.42438541733645;-704156.7032890717;-819916.6666666666;115759.963377595
0.10400000000000006;-790754523.0;-582808228.0;-8116182.0;-32002.73391672606;-28302.47878909035;41.9462907420384;-627844.2476103555;-814333.3333333334;186489.08572297785
0.10800000000000007;-927442450.0;-706305542.0;-6501174.0;-34171.9801656775;-30993.574940105576;132.92951010971956;-542311.56223786;-775250.0;232938.43776213998
0.11200000000000007;-1071393640.0;-839009399.0;-5189687.0;-35987.79570892337;-33276.338248263266;116.8659678539625;-453953.88581146655;-712583.3333333334;258629.44752186682
0.11600000000000008;-1221238913.0;-980573730.0;-3142212.0;-37461.31646062206;-35404.57108017266;336.8261309559821;-368380.187924673;-638416.6666666666;270036.4787419936
0.12000000000000008;-1375711509.0;-1128383789.0;-1577696.0;-38618.14725027588;-36961.004867138916;304.95898812745145;-289207.6974134543;-553500.0;264292.3025865457
0.12400000000000008;-1533673247.0;-1281082764.0;-524120.0;-39490.43267818827;-38253.238909596876;310.4438270126484;-218071.35697809828;-455333.3333333333;237261.97635523503
0.12800000000000009;-1694124211.0;-1438308105.0;872348.0;-40112.73911320951;-39309.443522188754;404.5679146135517;-155576.60875530928;-371000.0;215423.39124469072
0.1320000000000001;-1856204274.0;-1597922974.0;1558984.0;-40520.013737653804;-39966.848321683174;328.3309529762191;-101818.65611107423;-281333.3333333333;179514.67722225908
0.1360000000000001;-2019205382.0;-1759630737.0;2184456.0;-40750.275043233654;-40392.27300420284;252.7695528348704;-57565.32639496254;-222583.33333333334;165018.00693837082
0.1400000000000001;-2182604148.0;-1921997681.0;2115702.0;-40849.68958581723;-40588.96665646533;106.98640373461967;-24853.63564589352;-141666.66666666666;116813.03102077314
0.1440000000000001;-2346079981.0;-2085699463.0;2664108.0;-40868.95639624738;-40923.334484638945;294.83879596050974;-4816.702607537081;-94750.0;89933.29739246292
0.1480000000000001;-2509487195.0;-2249417725.0;2955378.0;-40851.801369325825;-40865.679799638274;186.25641161484236;4288.756730387831;-62083.333333333336;66372.09006372117
0.1520000000000001;-2672795219.0;-2412592163.0;2681641.0;-40827.00409570915;-40816.53501146247;115.39166680955532;6199.318404169389;-25250.0;31449.31840416939
0.1560000000000001;-2836028196.0;-2575909424.0;2630613.0;-40808.24232740922;-40782.429600786345;98.19622525625891;4690.442074981547;-7833.333333333333;12523.77540831488
0.16000000000000011;-2999222571.0;-2738375244.0;1817583.0;-40798.59192584027;-40670.98771180685;-39.667952449097356;2412.6003922374366;25416.666666666668;-23004.06627442923
0.16400000000000012;-3162406147.0;-2901599121.0;1823348.0;-40795.891917830886;-40819.573378001325;124.44823179053492;675.0020023464458;8250.0;-7574.997997653554
0.16800000000000012;-3325593098.0;-3064218750.0;1252658.0;-40796.7359442186;-40705.46097079961;-16.957509374216897;-211.00659692820045;9333.333333333334;-9544.339930261534
0.17200000000000013;-3488787119.0;-3227530518.0;1379448.0;-40798.5032309579;-40868.608247842814;155.13274637767609;-441.8216848243901;-4500.0;4058.17831517561
0.17600000000000013;-3651986581.0;-3390386353.0;1045549.0;-40799.86356777576;-40719.51795349951;-15.180806830205256;-340.0842044666206;-7916.666666666667;7576.582462200046
0.18000000000000013;-3815188541.0;-3553005981.0;469040.0;-40800.48809873266;-40683.40115047048;-87.48867758468259;-156.13273922463122;5666.666666666667;-5822.799405891298
0.18400000000000014;-3978390771.0;-3716087036.0;349675.0;-40800.555490234205;-40754.193979907184;-24.928733911146992;-16.847875385792577;416.6666666666667;-433.51454205245926
0.18800000000000014;-4141592241.0;-3879360352.0;420938.0;-40800.36564351683;-40803.68076810562;28.425889056699816;47.46167934354162;1333.3333333333333;-1285.8716539897916
0.19200000000000014;-4304792824.0;-4042496338.0;354997.0;-40800.14374222501;-40768.36146946542;-10.818534639613063;55.4753229553171;-11583.333333333334;11638.808656288651
0.19600000000000015;-4467992809.0;-4205769653.0;427189.0;-40799.99433501299;-40797.16236006947;22.514924564493413;37.351803004639805;-6083.333333333333;6120.685136337973
0.20000000000000015;-4631192543.0;-4368548584.0;5769.0;-40799.931712930185;-40721.91321665224;-77.82644815056119;15.655520701329806;4583.333333333333;-4567.677812632003
0.20400000000000015;-4794392263.0;-4532135010.0;392306.0;-40799.9280293263;-40924.05830240028;147.62628063179727;0.9209009713231353;2000.0;-1999.0790990286769
0.20800000000000016;-4957592068.0;-4695100708.0;158275.0;-40799.94928301275;-40759.8691288164;-30.564990548664355;-5.313421612299862;-4166.666666666667;4161.353245054367
0.21200000000000016;-5120791965.0;-4858412476.0;270289.0;-40799.97221121308;-40912.291823580505;128.57268591606407;-5.732050081860507;333.3333333333333;-339.0653834151938
0.21600000000000016;-5283991920.0;-5021746216.0;404188.0;-40799.98688710157;-40797.71962155797;22.01265240538487;-3.6689721237053163;-10500.0;10496.331027876295
0.22000000000000017;-5447191898.0;-5184343872.0;-198076.0;-40799.99256834013;-40736.7416546488;-75.12080097980652;-1.4203096397977788;14000.0;-14001.420309639798
0.22400000000000017;-5610391876.0;-5347886353.0;144441.0;-40799.9924628615;-40839.7080662686;48.38547263623332;0.02636965837155003;-7083.333333333333;7083.359702991705
0.22800000000000017;-5773591844.0;-5510725708.0;-216181.0;-40799.99010213815;-40706.719849427594;-106.24350380342366;0.5901808362978045;9333.333333333334;-9332.743152497036
0.23200000000000018;-5936791803.0;-5674432983.0;291120.0;-40799.987769674924;-40868.98750322378;86.46317573417036;0.5831158068758668;-11500.0;11500.583115806876
0.23600000000000018;-6099991756.0;-5837036133.0;-305695.0;-40799.98636169865;-40611.83490899454;-206.4959821907687;0.3519940692058299;916.6666666666666;-916.3146725974608
0.24000000000000019;-6263191707.0;-6000331421.0;-210364.0;-40799.985872881;-40853.23670863197;40.627643530853675;0.12220441203680821;10750.0;-10749.877795587963
0.2440000000000002;-6426391659.0;-6163654175.0;-87562.0;-40799.98594149268;-40808.21443650443;2.9745403644701582;-0.017152920918306336;-4750.0;4749.982847079082
0.2480000000000002;-6589591611.0;-6326938477.0;-3211.0;-40799.98620546547;-40869.01595300113;68.83739005248208;-0.06599319749511778;2000.0;-2000.0659931974951
0.25200000000000017;-6752791565.0;-6490255737.0;114097.0;-40799.98644417806;-40815.83989264824;22.699666896536655;-0.059678146499209106;-16583.333333333332;16583.273655186833
0.25600000000000017;-6915991519.0;-6653369751.0;28158.0;-40799.98657959436;-40854.87368203652;56.57686347192066;-0.03385407580935862;9916.666666666666;-9916.700520742475
0.2600000000000002;-7079191473.0;-6816890259.0;348712.0;-40799.98662097262;-40854.139951986115;75.07617551631847;-0.010344563634134829;-8250.0;8249.989655436366
0.2640000000000002;-7242391427.0;-6979515381.0;-226120.0;-40799.98660873155;-40707.838962565365;-105.7148326412862;0.0030602659535361454;10416.666666666666;-10416.663606400713
0.2680000000000002;-7405591381.0;-7142915039.0;-26416.0;-40799.98657991751;-40821.13898394683;19.567408070091915;0.0072035109042190015;-1750.0;1750.0072035109042
0.2720000000000002;-7568791335.0;-7305688477.0;-452932.0;-40799.986555755226;-40683.907391043984;-143.25512633499602;0.0060405709518818185;8833.333333333334;-8833.327292762382
0.2760000000000002;-7731991289.0;-7469620972.0;279609.0;-40799.98654288466;-40934.051239453715;150.84120894734224;0.003217641278752126;-7166.666666666667;7166.669884307946
0.2800000000000002;-7895191243.0;-7632449341.0;-91976.0;-40799.98653953592;-40638.92857714262;-166.57653365119768;0.0008371844160137698;-9500.0;9500.000837184416
0.2840000000000002;-8058391197.0;-7796134644.0;393373.0;-40799.9865412898;-40950.979202509734;174.5950408773715;-0.00043846921471413225;4583.333333333333;-4583.333771802548
0.2880000000000002;-8221591151.0;-7959149780.0;208555.0;-40799.98654438894;-40668.801196290944;-118.67204395985027;-0.0007747858035145327;-8833.333333333334;8833.33255854753
0.2920000000000002;-8384791105.0;-8121901245.0;-239934.0;-40799.98654681277;-40798.58847016964;-15.794112338626292;-0.0006059563020244241;24000.0;-24000.000605956302
0.2960000000000002;-8547991059.0;-8285416260.0;75127.0;-40799.9865480224;-40798.93543131109;3.456505979396752;-0.0003024088073289022;-13416.666666666666;13416.666364257859
0.3000000000000002;-8711191013.0;-8447865601.0;-675486.0;-40799.9865482743;-40716.98649895618;-123.52920832185919;-6.297341315075755e-05;22250.0;-22250.000062973413
0.3040000000000002;-8874390967.0;-8612122192.0;381151.0;-40799.98654804683;-41008.33126515249;231.21377703730832;5.686706572305411e-05;-24250.0;24250.000056867066
0.3080000000000002;-9037590921.0;-8774708862.0;-232133.0;-40799.98654771732;-40662.08510164671;-151.82942653595092;8.23765731183812e-05;1750.0;-1749.9999176234269
0.3120000000000002;-9200790875.0;-8938454590.0;313641.0;-40799.986547475855;-40933.482984003545;152.31489608599077;6.036680133547634e-05;-7666.666666666667;7666.666727033468
0.3160000000000002;-9363990829.0;-9101453247.0;112344.0;-40799.98654736441;-40666.508758266995;-126.73714935646422;2.7861460694111884e-05;-2250.0;2250.0000278614607
0.32000000000000023;-9527190783.0;-9264660645.0;119788.0;-40799.9865473466;-40826.073825394764;33.274557961834944;4.452886059880257e-06;14500.0;-14499.999995547114
0.32400000000000023;-9690390736.0;-9428054810.0;313999.0;-40799.9865473751;-40724.21572771058;-56.9308796473706;-7.12498149368912e-06;-13000.0;12999.999992875019
0.32800000000000024;-9853590690.0;-9590438232.0;-502533.0;-40799.986547409186;-40639.0523624623;-191.08616489569977;-8.521965355612338e-06;23583.333333333332;-23583.333341855297
0.33200000000000024;-10016790644.0;-9753986206.0;-154512.0;-40799.98654743463;-40848.09516143338;38.83789404496929;-6.36100594419986e-06;-5916.666666666667;5916.666660305661
0.33600000000000024;-10179990598.0;-9916803589.0;-537083.0;-40799.98654744277;-40764.03019640983;-68.18133100915293;-2.0354491425678134e-06;11250.0;-11250.00000203545
0.34000000000000025;-10343190552.0;-10081296387.0;755761.0;-40799.98654744481;-41124.42821746069;369.78733002304944;-5.093170329928398e-07;-22583.333333333332;22583.333332824015
0.34400000000000025;-10506390506.0;-10244349976.0;609396.0;-40799.98654744176;-40748.7300252333;-14.692762210317596;7.621565600857139e-07;-20416.666666666668;20416.666667428824
0.34800000000000025;-10669586532.0;-10407321167.0;380633.0;-40799.004541410475;-40793.965566026694;16.816998583220993;245.50150782124547;7416.666666666667;-7171.1651588454215
0.35200000000000026;-10832753233.0;-10569852905.0;-286026.0;-40791.67320564459;-40584.826563688126;-231.93219370600855;1832.8339414711081;13000.0;-11167.166058528892
0.35600000000000026;-10995813605.0;-10732626343.0;-697010.0;-40765.09116583504;-40751.26190350227;-86.66223177077336;6645.509952388238;34750.0;-28104.490047611762
0.36000000000000026;-11158606779.0;-10896525879.0;77811.0;-40698.29153460522;-40880.22355352178;103.71541427179909;16699.90780745502;-18666.666666666668;35366.57447412169
0.36400000000000027;-11320843954.0;-11059458618.0;55495.0;-40559.291863291684;-40716.229845671696;-19.20236426439078;34749.91782838333;-6083.333333333333;40833.25116171667
0.36800000000000027;-11482049211.0;-11222479248.0;501830.0;-40301.31232486508;-40700.97802879252;87.51608790399041;64494.884606650885;-13750.0;78244.88460665088
0.3720000000000003;-11641517637.0;-11384494629.0;685918.0;-39867.104577997394;-40485.36794334387;68.70156490898808;108551.93671692177;24250.0;84301.93671692177
0.3760000000000003;-11798303135.0;-11545625610.0;1294222.0;-39196.37262873018;-40288.83774622241;235.82372963624948;167682.9873168026;37583.333333333336;130099.65398346927
0.3800000000000003;-11951219360.0;-11704812012.0;2065760.0;-38229.054521534905;-39763.01991999568;283.25149367918493;241829.52679881966;56583.333333333336;185246.1934654863
0.3840000000000003;-12098862120.0;-11860394897.0;2381533.0;-36910.688073566926;-38856.40060411493;182.51640052704897;329591.6119919948;105000.0;224591.61199199478
0.3880000000000003;-12239667797.0;-12011698608.0;2837194.0;-35201.41760174335;-37770.6254901708;228.84642624513071;427317.6179558941;167750.0;259567.6179558941
0.3920000000000003;-12371990140.0;-12157630005.0;3805728.0;-33080.584294847984;-36350.927221456426;338.55705921047047;530208.3267238413;240000.0;290208.3267238413
0.3960000000000003;-12494184638.0;-12296151123.0;4844618.0;-30548.62300993401;-34511.63766016108;431.7591499105765;632990.3212284935;318250.0;314740.32122849347
0.4000000000000003;-12604734557.0;-12426476440.0;6813417.0;-27637.47834339381;-32440.072286405863;759.7493414736819;727786.16663505;397166.6666666667;330619.4999683833
0.4040000000000003;-12702416240.0;-12545848389.0;8548419.0;-24420.41958213947;-29678.145612505326;781.8154055653285;804264.6903135846;496916.6666666667;307348.02364691795
0.4080000000000003;-12786431017.0;-12651619263.0;8803198.0;-21003.69333445876;-26230.3860663644;379.55564698427406;854181.561920178;615666.6666666666;238514.89525351132
0.4120000000000003;-12856490684.0;-12743585815.0;8431382.0;-17514.91590281409;-22879.453950141953;300.74590518121477;872194.3579111675;749000.0;123194.35791116758
0.4160000000000003;-12912887471.0;-12822247925.0;8531619.0;-14099.196165348587;-19484.45122952597;355.8808942094074;853929.9343663757;826666.6666666666;27263.26769970899
0.4200000000000003;-12956500273.0;-12886825562.0;8384939.0;-10903.200071113895;-15998.819793553874;320.8376807604436;798999.0235586729;859583.3333333334;-60584.30977466048
0.4240000000000003;-12988693921.0;-12937494507.0;7645691.0;-8048.4114162058995;-12504.721112629093;111.41493836886184;713697.163726999;853916.6666666666;-140219.50293966767
0.4280000000000003;-13011160636.0;-12975578613.0;6569606.0;-5616.678646637183;-9447.265322031915;51.394166901553035;607933.192392179;861166.6666666666;-253233.47427448755
0.43200000000000033;-13025760140.0;-13003049927.0;5636939.0;-3649.87574642829;-6756.137314743325;-6.640991428034795;491700.7250522233;807500.0;-315799.2749477767
0.43600000000000033;-13034365236.0;-13020853271.0;4035801.0;-2151.2738624503927;-4411.299753041305;-197.6726491551326;374650.4709944743;732916.6666666666;-358266.1956721923
0.44000000000000034;-13038722604.0;-13031943970.0;2857588.0;-1089.3418666373302;-2723.74251101432;-172.02995981446838;265482.9989532656;619250.0;-353767.0010467344
0.44400000000000034;-13040357888.0;-13037107544.0;1065100.0;-408.8209890506862;-1267.0260420909078;-408.0832471209519;170130.219396661;513750.0;-343619.780603339
0.44800000000000034;-13040510637.0;-13039172974.0;-172463.0;-38.187255654067606;-534.6360683500171;-301.4599412507315;92658.43334915464;395166.6666666667;-302508.23331751203
0.45200000000000035;-13040072831.0;-13039442139.0;-966730.0;109.45148681323019;-63.526017617546024;-260.3357143105401;36909.68561682445;272083.3333333333;-235173.64771650886
0.45600000000000035;-13039569657.0;-13039420166.0;-915992.0;125.79352254260502;-5.264359863877297;-31.517643288925797;4085.508932343707;165750.0;-161664.4910676563
0.46000000000000035;-13039221429.0;-13039282837.0;-593058.0;87.05680172781949;30.405400949828326;49.07689692917425;-9684.180203696382;70000.0;-79684.18020369638
0.46400000000000036;-13039056306.0;-13039233398.0;-201139.0;41.28077736714208;6.912573535121977;91.35835034996317;-11444.006090169352;25583.333333333332;-37027.339423502686
0.46800000000000036;-13039018362.0;-13039233398.0;75398.0;9.486038203815092;-2.7069076211452483;76.36508391385887;-7948.684790831747;-83.33333333333333;-7865.351457498414
0.47200000000000036;-13039039619.0;-13039233398.0;191170.0;-5.314330751007223;-0.30168529679626227;40.714764271182396;-3700.0922387055784;-1416.6666666666667;-2283.425572038912
