Zeit[sec];Sollposition[°];Istposition[°];Positionsschleppfehler[°];Sollgeschwindigkeit[°/s];Istgeschwindigkeit[°/s];Geschwindigkeitsdifferenz[°/s];Sollbeschleunigung[°/s*s];Istbeschleunigung[°/s*s];Beschleunigungsdifferenz[°/s*s]
0.0;0.0;0.0;0.0;-0.0;0.21486593014894037;-0.21486593014894037;0.0;0.0;0.0
0.004;0.0;10986.0;-10986.0;-0.0;5.620992116844667;-6.093390116844667;0.0;0.0;0.0
0.008;0.0;0.0;0.0;-0.0;1.0804581902540866;-1.0804581902540866;0.0;0.0;0.0
0.012;0.0;0.0;0.0;-0.0;0.756477897909895;-0.756477897909895;0.0;0.0;0.0
0.016;0.0;-10986.0;10986.0;-0.0;-8.399550017798104;8.871948017798104;0.0;83.33333333333333;-83.33333333333333
0.02;0.0;0.0;0.0;-0.0;-0.9416183762931205;0.9416183762931205;0.0;-83.33333333333333;83.33333333333333
0.024;0.0;0.0;0.0;-0.0;0.7451672650992552;-0.7451672650992552;0.0;0.0;0.0
0.028;0.0;-5493.0;5493.0;-0.0;-2.936318581189485;3.172517581189485;0.0;-83.33333333333333;83.33333333333333
0.032;0.0;10986.0;-10986.0;-0.0;4.965549349873392;-5.437947349873392;0.0;83.33333333333333;-83.33333333333333
0.036000000000000004;-3470.0;-5493.0;5493.0;-0.8676880824979866;-3.786009718375673;4.022208718375673;-216.92202062449664;0.0;-216.92202062449664
0.04000000000000001;-38059.0;0.0;-1376.0;-8.647095588309547;-0.2362770562942934;-0.16691571078986928;-1944.85187645289;0.0;-1944.85187645289
0.04400000000000001;-208068.0;0.0;-17164.0;-42.50222826279848;-3.5937833378648385;-1.091286157586767;-8463.783168622234;83.33333333333333;-8547.116501955566
0.048000000000000015;-770167.0;-5493.0;-99769.0;-140.52486255698935;-2.631096116751321;-23.683515124690686;-24505.658573547717;-83.33333333333333;-24422.325240214384
0.05200000000000002;-2197081.0;-10986.0;-418949.0;-356.7283695144894;-3.334842923166155;-95.84826531560358;-54050.87673937501;0.0;-54050.87673937501
0.05600000000000002;-5184339.0;-27466.0;-1305157.0;-746.8145599197596;-4.841000192358257;-276.95257432066614;-97521.54760131756;-333.3333333333333;-97188.21426798424
0.060000000000000026;-10583701.0;-148315.0;-3224806.0;-1349.8404640932008;-33.66689179175539;-615.1243976981195;-150756.4760433603;-1166.6666666666667;-149589.80937669362
0.06400000000000003;-19309359.0;-686646.0;-6620952.0;-2181.4143333735474;-151.88033367727672;-1116.439849695594;-207893.46732008664;-5916.666666666667;-201976.80065341998
0.06800000000000003;-32278450.0;-3103638.0;-10908013.0;-3242.272701919992;-688.277331419966;-1456.7803825939188;-265214.5921366112;-26250.0;-238964.59213661114
0.07200000000000004;-50386032.0;-9959106.0;-14441168.0;-4526.895178366368;-1790.7390830806146;-1427.3867383692752;-321155.619111594;-94083.33333333333;-227072.28577826064
0.07600000000000004;-74467473.0;-22269287.0;-17112545.0;-6020.360092815422;-3145.462548742022;-1335.7663608595608;-373366.2286122635;-194666.66666666666;-178699.56194559686
0.08000000000000004;-105234630.0;-40550537.0;-19277311.0;-7691.788730504991;-4652.563804775333;-1287.8641649578694;-417857.1594223922;-292583.3333333333;-125273.8260890589
0.08400000000000005;-143218093.0;-65423584.0;-21101484.0;-9495.8652642259;-6311.391335000695;-1270.2771376030769;-451019.1334302274;-355166.6666666667;-95852.4667635607
0.08800000000000005;-188723902.0;-97981567.0;-22132636.0;-11376.451883381797;-8254.05862375172;-1094.9280845038102;-470146.65478897403;-397750.0;-72396.65478897405
0.09200000000000005;-241794776.0;-139037476.0;-22000400.0;-13267.717769624622;-10348.359896645326;-828.5750169701914;-472816.4715607063;-450750.0;-22066.471560706304
0.09600000000000006;-302199728.0;-188596802.0;-20902237.0;-15101.23741559341;-12507.0955708006;-506.990814225388;-458379.91149219713;-494500.0;36120.08850780285
0.10000000000000006;-369468013.0;-246851807.0;-18581626.0;-16817.070434151687;-14633.510602034248;-149.09734042032142;-428958.2546395691;-529666.6666666666;100708.41202709755
0.10400000000000006;-442944818.0;-312791748.0;-15724869.0;-18369.200279230052;-16560.44363872605;113.4791533407988;-388032.4612695913;-527166.6666666666;139134.20539707533
0.10800000000000007;-521850755.0;-385224609.0;-12981659.0;-19726.483370706017;-18152.067277526698;171.44398392338553;-339320.7728689913;-501333.3333333333;162012.560464342
0.11200000000000007;-605343547.0;-463826294.0;-9972967.0;-20873.19708019989;-19723.277532377604;396.1926447366495;-286678.42737346835;-446500.0;159821.57262653165
0.11600000000000008;-692574334.0;-548129883.0;-6362120.0;-21807.695652831528;-21101.643589516723;654.887821012213;-233624.6431579093;-404250.0;170625.3568420907
0.12000000000000008;-782728280.0;-635509644.0;-3930332.0;-22538.485487808888;-21836.38634608332;430.3899330167478;-182697.4587443401;-347916.6666666667;165219.20792232658
0.12400000000000008;-875054172.0;-726284180.0;-1523667.0;-23081.471743511283;-22763.158959303742;605.6744520688735;-135746.5639255988;-278166.6666666667;142420.10274106788
0.12800000000000009;-968889730.0;-819695435.0;889627.0;-23458.888491107853;-23319.68526001312;608.4501386677912;-94354.1868991424;-224083.33333333334;129729.14643419095
0.1320000000000001;-1063677407.0;-914573364.0;2855831.0;-23696.91803578538;-23722.175779456313;617.0464857516854;-59507.38616938179;-166916.66666666666;107409.28049728487
0.1360000000000001;-1158975108.0;-1010357666.0;4435921.0;-23824.42416490805;-23952.521034337842;592.2135772324364;-31876.53228066756;-134583.33333333334;102706.80105266577
0.1400000000000001;-1254469978.0;-1107004395.0;6098335.0;-23873.716413554805;-24118.962893531458;635.1137791955443;-12323.06216168854;-81083.33333333333;68760.2711716448
0.1440000000000001;-1349980552.0;-1201832886.0;5553939.0;-23877.64241576258;-23726.781613498522;122.38032541875509;-981.5005519440092;-34250.0;33268.49944805599
0.1480000000000001;-1445432533.0;-1297853394.0;6074506.0;-23862.99389797455;-23995.352804246257;381.5723719292764;3662.1294470078283;2500.0;1162.1294470078283
0.1520000000000001;-1540818213.0;-1392451172.0;5185033.0;-23846.418856438304;-23689.78580557134;40.93072114781535;4143.760384061352;19250.0;-15106.239615938648
0.1560000000000001;-1636158450.0;-1488609009.0;5916833.0;-23835.058339114446;-23995.529267167058;393.4451020176857;2840.1293309643734;8750.0;-5909.870669035627
0.16000000000000011;-1731477659.0;-1583860474.0;5800247.0;-23829.80089972237;-23843.507016651696;250.9059294402141;1314.359848019194;-9083.333333333334;10397.693181352528
0.16400000000000012;-1826792675.0;-1677930908.0;4538515.0;-23828.75304137422;-23394.703685554676;-243.1805815194857;261.9645870372551;8166.666666666667;-7904.702079629412
0.16800000000000012;-1922111190.0;-1771056519.0;2346457.0;-23829.627473006905;-23443.090584541027;-285.42801002803753;-218.6079081711796;50916.666666666664;-51135.274574837844
0.17200000000000013;-2017434537.0;-1865429077.0;1402587.0;-23830.835784961902;-23474.295441124428;-294.49919752416463;-302.07798874926084;29000.0;-29302.07798874926
0.17600000000000013;-2112761175.0;-1960751953.0;1405052.0;-23831.658365525003;-23950.932877104784;181.24868691045776;-205.645140775232;14750.0;-14955.645140775232
0.18000000000000013;-2208089112.0;-2056602173.0;1930649.0;-23831.983100062374;-23876.480888598137;128.3439502486508;-81.18363434277853;-67333.33333333333;67252.14969899054
0.18400000000000014;-2303417005.0;-2152694092.0;2695434.0;-23831.972092497683;-24015.22331803784;299.3446821507532;2.7518911729202955;-29333.333333333332;29336.085224506252
0.18800000000000014;-2398744318.0;-2246781006.0;1454436.0;-23831.827050323893;-23530.10752108843;-239.32856390511733;36.260543447497184;-20083.333333333332;20119.59387678083
0.19200000000000014;-2494071056.0;-2341966553.0;1312320.0;-23831.683431447636;-23765.13663446488;-10.348255574619543;35.904719064092205;34750.0;-34714.09528093591
0.19600000000000015;-2589397444.0;-2435888672.0;-92650.0;-23831.595825041546;-23581.689899136407;-254.06500840357694;21.901601522586134;26666.666666666668;-26644.76506514408
0.20000000000000015;-2684723707.0;-2532139893.0;831969.0;-23831.56456802197;-23986.23504315445;190.3601717611309;7.814254893673933;-333.3333333333333;341.14758822700725
0.20400000000000015;-2780049983.0;-2628006592.0;1372327.0;-23831.567949009474;-24016.059456539926;243.48557209945648;-0.845246875542216;-30250.0;30249.154753124458
0.20800000000000016;-2875376323.0;-2722977905.0;1017371.0;-23831.58383452891;-23659.390656609656;-128.42848206760755;-3.971379858739965;-27333.333333333332;27329.361953474592
0.21200000000000016;-2970702722.0;-2817454834.0;167999.0;-23831.598527027985;-23679.449776396308;-144.90049416293914;-3.6731247691932367;19416.666666666668;-19420.33979143586
0.21600000000000016;-3066029154.0;-2912025146.0;-588052.0;-23831.60702866668;-23645.215099483827;-211.6607033121836;-2.1254096736811334;26000.0;-26002.12540967368
0.22000000000000017;-3161355598.0;-3007908325.0;-31284.0;-23831.60975857296;-23988.38504498137;155.43802127532763;-0.6824765696364921;14083.333333333334;-14084.01580990297
0.22400000000000017;-3256682039.0;-3103582764.0;316718.0;-23831.609131975347;-23914.249284281123;96.26009706354307;0.15664940292481333;-33750.0;33750.156649402925
0.22800000000000017;-3352008473.0;-3199334106.0;741617.0;-23831.60741798089;-23884.201790828025;84.48182768678453;0.4284986143829883;-22750.0;22750.428498614383
0.23200000000000018;-3447334901.0;-3293898926.0;-20001.0;-23831.6059427991;-23670.061537970018;-162.40696110477802;0.36879544768453343;750.0;-749.6312045523155
0.23600000000000018;-3542661326.0;-3388892212.0;-353147.0;-23831.605140104337;-23733.543292312403;-113.24887182488601;0.2006736904149875;24333.333333333332;-24333.132659642917
0.24000000000000019;-3637987751.0;-3484094238.0;-477548.0;-23831.60491929793;-23836.403115567697;-15.73708161911054;0.05520160175365163;16083.333333333334;-16083.27813173158
0.2440000000000002;-3733314175.0;-3580252075.0;353864.0;-23831.605016697064;-24011.65637124614;195.26746598480167;-0.024349783416255377;-15583.333333333334;15583.308983549918
0.2480000000000002;-3828640601.0;-3676052856.0;828221.0;-23831.60520285405;-23979.645090761518;183.65363455255647;-0.04653924679587362;-23583.333333333332;23583.286794086536
0.25200000000000017;-3923967026.0;-3771035156.0;484096.0;-23831.60535166217;-23655.26185651952;-155.52710541515626;-0.03720202948898077;-14166.666666666666;14166.629464637177
0.25600000000000017;-4019293453.0;-3865006714.0;-870772.0;-23831.60542746944;-23596.305960215537;-272.74249654787127;-0.018951817764900625;36666.666666666664;-36666.68561848443
0.2600000000000002;-4114619879.0;-3960164795.0;-1039117.0;-23831.60544458806;-23743.30062534435;-132.98678650229704;-0.004279655513528269;23000.0;-23000.004279655514
0.2640000000000002;-4209946305.0;-4056278687.0;-251651.0;-23831.60543164456;-24089.92128960244;247.4948627899139;0.0032358757380279712;6000.0;-5999.996764124262
0.2680000000000002;-4305272731.0;-4152227783.0;371019.0;-23831.60541178319;-23923.954194122492;108.302571766646;0.004965341759088915;-49750.0;49750.00496534176
0.2720000000000002;-4400599158.0;-4248292236.0;1109046.0;-23831.60539692376;-24009.330147385488;225.41370153981916;0.0037148583942325786;-20416.666666666668;20416.670381525062
0.2760000000000002;-4495925584.0;-4342203369.0;-306248.0;-23831.60538986037;-23475.430572593148;-369.34349741488404;0.0017658467186265625;5250.0;-5249.998234153281
0.2800000000000002;-4591252010.0;-4437454834.0;-381209.0;-23831.605388660817;-23842.7491351685;-5.248246041832317;0.0002998885975102894;44916.666666666664;-44916.66636677807
0.2840000000000002;-4686578436.0;-4532003174.0;-1159295.0;-23831.6053902647;-23662.628506940175;-218.8265674859722;-0.0004009707481600344;14750.0;-14750.000400970748
0.2880000000000002;-4781904862.0;-4628325806.0;-163089.0;-23831.605392359106;-24059.632012342925;221.01379603915848;-0.0005236015567788854;-4416.666666666667;4416.66614306511
0.2920000000000002;-4877231288.0;-4723901367.0;86046.0;-23831.60539383016;-23929.872239381293;101.96682629557836;-0.00036776327760890126;-36166.666666666664;36166.66629890339
0.2960000000000002;-4972557714.0;-4819493408.0;351661.0;-23831.605394477636;-23781.49781427496;-34.98615565512955;-0.00016186913853744045;-15833.333333333334;15833.333171464195
0.3000000000000002;-5067884140.0;-4913442993.0;-1025180.0;-23831.605394545295;-23626.5269527397;-249.16118133858618;-1.691478246357292e-05;22000.0;-22000.000016914782
0.3040000000000002;-5163210566.0;-5009122925.0;-671674.0;-23831.605394355254;-23777.2212174277;-83.26615907292944;4.7510184231214225e-05;15333.333333333334;-15333.33328582315
0.3080000000000002;-5258536992.0;-5104154663.0;-966362.0;-23831.60539413661;-23904.791796888516;31.632836418990337;5.466063157655299e-05;21166.666666666668;-21166.666612006036
0.3120000000000002;-5353863221.0;-5200526733.0;79282.0;-23831.556089454654;-23923.716401651396;95.52013338173492;12.326170489359356;-42333.333333333336;42345.659503822695
0.3160000000000002;-5449187978.0;-5295662842.0;-110957.0;-23831.187997853332;-23901.39496748785;65.03797088599822;92.02290033044846;1250.0;-1157.9770996695515
0.32000000000000023;-5544507396.0;-5390299072.0;-800374.0;-23829.853367388485;-23535.510606515538;-330.31591126521016;333.6576162118945;-12666.666666666666;13000.32428287856
0.32400000000000023;-5639812498.0;-5485962524.0;-459570.0;-23826.27435919208;-24073.053355480475;222.63085096612122;894.7520491010437;40833.333333333336;-39938.58128423229
0.32800000000000024;-5735082961.0;-5580736084.0;-999784.0;-23817.61469137242;-23557.630594109643;-313.8022845513515;2164.9169549154976;-18166.666666666668;20331.583621582166
0.33200000000000024;-5830277237.0;-5677250977.0;223657.0;-23798.567885952558;-24250.593733523085;437.34907756305984;4761.701354965226;13083.333333333334;-8321.631978368108
0.33600000000000024;-5925325613.0;-5771689453.0;-578326.0;-23762.092720261895;-23498.692972420136;-336.2887164507083;9118.791422665709;-40833.333333333336;49952.124755999044
0.34000000000000025;-6020130926.0;-5867396851.0;-7803.0;-23701.327347069182;-23994.71717217295;210.1639881167721;15191.343298178253;36000.0;-20808.656701821747
0.34400000000000025;-6114574687.0;-5960538940.0;-1818574.0;-23610.939001701056;-23290.519959548627;-525.8926433752822;22597.086342031616;-2250.0;24847.086342031616
0.34800000000000025;-6208519320.0;-6057097778.0;76876.0;-23486.157159051465;-24098.133924788748;435.59376523160245;31195.460662397636;38583.333333333336;-7387.8726709357
0.35200000000000026;-6301791026.0;-6150514526.0;-754359.0;-23317.925347983026;-23446.645861068842;-147.7861459490705;42057.95276710978;-17833.333333333332;59891.28610044312
0.35600000000000026;-6394143398.0;-6247172241.0;2222604.0;-23088.091888449224;-23995.53217231363;670.9171261194424;57458.364883450486;-4083.3333333333335;61541.69821678382
0.36000000000000026;-6485218215.0;-6337825928.0;-34857.0;-22768.703130169575;-22809.320085204195;-419.9644714894239;79847.18956991218;19083.333333333332;60763.85623657885
0.36400000000000027;-6574496553.0;-6431610718.0;1898705.0;-22319.583442657775;-23249.863655702055;368.70205403441287;112279.92187795008;59416.666666666664;52863.25521128341
0.36800000000000027;-6661235849.0;-6519781494.0;-300546.0;-21684.823074537402;-22277.246901909446;-328.1821861623539;158690.0920300932;94500.0;64190.09203009318
0.3720000000000003;-6744442047.0;-6611033936.0;2669723.0;-20801.548594829706;-22524.014949115917;568.2706026180822;220818.61992692394;68250.0;152568.61992692394
0.3760000000000003;-6822925653.0;-6695612183.0;1894615.0;-19620.900474931335;-21399.276272058756;142.40687352975874;295162.0299745928;105666.66666666667;189495.3633079261
0.3800000000000003;-6895418483.0;-6781206665.0;6134631.0;-18123.206691945037;-21009.741180344154;934.9148140227626;374423.44574657455;95750.0;278673.44574657455
0.3840000000000003;-6960701871.0;-6856594849.0;5386787.0;-16320.846181951796;-19075.680985083683;273.3066745635733;450590.1274983103;220666.66666666666;229923.4608316436
0.3880000000000003;-7017751707.0;-6930576782.0;9699218.0;-14262.458232416759;-18092.877896549697;1092.5698094242944;514596.98738375935;245833.33333333334;268763.65405042603
0.3920000000000003;-7065898354.0;-6991946411.0;9007691.0;-12036.661157707253;-15497.130539696172;369.1730243100901;556449.2686773764;396166.6666666667;160282.60201070982
0.3960000000000003;-7104930304.0;-7049690552.0;13183728.0;-9757.987086470152;-14096.372250377592;1271.2472171120644;569668.5178092753;410416.6666666667;159251.8511426086
0.4000000000000003;-7135112560.0;-7093591919.0;12500116.0;-7545.563683475321;-11063.175703213543;454.4364187348365;553105.8507487075;523750.0;29355.850748707555
0.4040000000000003;-7157159981.0;-7131220093.0;14551699.0;-5511.855062062905;-9102.971099843018;834.5467746584727;508427.1553531041;540250.0;-31822.844646895872
0.4080000000000003;-7172167963.0;-7155582275.0;11905106.0;-3751.9951206808028;-6169.8607382516975;-70.41311390767714;439964.9853455255;616833.3333333334;-176868.34798780785
0.4120000000000003;-7181480121.0;-7174962158.0;11980931.0;-2328.039388926313;-4662.8696219294;352.03530035928;355988.93293862237;593250.0;-237261.06706137763
0.4160000000000003;-7186527111.0;-7184295044.0;8522893.0;-1261.7475595217838;-2398.4777270425634;-432.76847564994523;266572.95735113235;563333.3333333334;-296760.375982201
0.4200000000000003;-7188688818.0;-7190941772.0;7515162.0;-540.4267858778575;-1561.1699599280282;-29.292904064964887;180330.1934109816;470083.3333333333;-289753.1399223517
0.4240000000000003;-7189175138.0;-7191589966.0;4235344.0;-121.57999360938135;-211.75220508801192;-588.1309500089632;104711.69806711902;383166.6666666667;-278454.96859954763
0.4280000000000003;-7188911405.0;-7192144775.0;3275805.0;65.93336991520594;-101.20666979042814;-136.52078134221046;46878.340881146825;283416.6666666667;-236538.32578551988
0.43200000000000033;-7188477548.0;-7190881348.0;1813626.0;108.46426751638181;234.6055616829768;-206.30769897461357;10632.724400293966;173333.33333333334;-162700.6089330394
0.43600000000000033;-7188143945.0;-7191150513.0;2409581.0;83.40070032814502;4.601520365510136;180.7079577888762;-6265.891797059197;79916.66666666667;-86182.55846372587
0.44000000000000034;-7187972979.0;-7189991455.0;1643634.0;42.74152650772681;237.88013017223776;-68.92611790589476;-10164.793455104553;19500.0;-29664.79345510455
0.44400000000000034;-7187926637.0;-7190062866.0;1984753.0;11.585400598239582;19.142718400582673;133.62849064636887;-7789.031477371807;83.33333333333333;-7872.36481070514
0.44800000000000034;-7187943232.0;-7189475098.0;1519492.0;-4.148819661538916;116.73736028446257;-20.772357538792804;-3933.5550649446245;-1583.3333333333333;-2350.221731611291
0.45200000000000035;-7187975493.0;-7189562988.0;1629500.0;-8.065040134327973;13.542491961624474;62.05559157611573;-979.0551181972642;-7750.0;6770.944881802736
0.45600000000000035;-7187999757.0;-7189194946.0;1239020.0;-6.066129689327916;63.15597827294096;-15.487465464215624;499.7276112500142;-5916.666666666667;6416.394277916681
0.46000000000000035;-7188010502.0;-7189233398.0;1248474.0;-2.6862033751598107;19.27469883869961;27.160126389801203;844.9815785420262;-4416.666666666667;5261.648245208693
0.46400000000000036;-7188011240.0;-7189068604.0;1064729.0;-0.1844916934432194;25.14316227880493;15.902430638208394;625.4279204291478;-916.6666666666666;1542.0945870958144
0.46800000000000036;-7188007436.0;-7189074097.0;1063365.0;0.9509760440147074;14.947408675450832;29.06316828621472;283.86693436448166;-4083.3333333333335;4367.200267697815
0.47200000000000036;-7188002606.0;-7189035645.0;1025918.0;1.2073792425367353;0.1842108234986663;44.181308232456296;64.100799630507;-333.3333333333333;397.4341329638403
0.47600000000000037;-7187996520.0;-7189019165.0;1013623.0;1.521500998689553;9.363257890224457;35.26851388443811;78.53043903820439;-2833.3333333333335;2911.863772371538
0.48000000000000037;-7187984290.0;-7188975220.0;975000.0;3.0575671650382708;11.772686545930803;31.482734702259314;384.01654158717946;416.6666666666667;-32.650125079487225
