Zeit[sec];Sollposition[°];Istposition[°];Positionsschleppfehler[°];Sollgeschwindigkeit[°/s];Istgeschwindigkeit[°/s];Geschwindigkeitsdifferenz[°/s];Sollbeschleunigung[°/s*s];Istbeschleunigung[°/s*s];Beschleunigungsdifferenz[°/s*s]
0.0;-9979199999.0;-9979205933.0;5934.0;0.0;-2.35010279995203;2.706142799968593;0.0;0.0;0.0
0.004;-9979199999.0;-9979200439.0;440.0;0.0;0.5962251914218069;-0.5698251913970521;0.0;0.0;0.0
0.008;-9979199999.0;-9979200439.0;440.0;0.0;-2.1518819880485536;2.178281988073308;0.0;0.0;0.0
0.012;-9979199999.0;-9979194946.0;-5053.0;0.0;3.6241428413242103;-3.9273228413768253;0.0;-83.33333333333333;83.33333333333333
0.016;-9979199999.0;-9979200439.0;440.0;0.0;-0.29430322564393285;0.32070322566868764;0.0;166.66666666666666;-166.66666666666666
0.02;-9979199999.0;-9979200439.0;440.0;0.0;0.4767957408949733;-0.4503957408702185;0.0;0.0;0.0
0.024;-9979199999.0;-9979194946.0;-5053.0;0.0;1.3161186923235655;-1.6192986923761803;0.0;83.33333333333333;-83.33333333333333
0.028;-9979199999.0;-9979194946.0;-5053.0;0.0;1.3348507293984295;-1.6380307294510443;0.0;-166.66666666666666;166.66666666666666
0.032;-9979199999.0;-9979194946.0;-5053.0;0.0;3.4905617524534462;-3.793741752506061;0.0;0.0;0.0
0.036000000000000004;-9979200087.0;-9979200439.0;440.0;-0.021877165575204915;-1.1104815648570656;1.1368815648818205;-5.469291393801229;83.33333333333333;-88.80262472713456
0.04000000000000001;-9979200959.0;-9979194946.0;-5088.0;-0.21802066803092846;1.5163803608864546;-1.8303343153112586;-49.035875613930884;0.0;-49.035875613930884
0.04400000000000001;-9979205246.0;-9979200439.0;7.0;-1.0716157948285707;-1.3080190074667335;1.2089221944514188;-213.39878169941056;0.0;-213.39878169941056
0.048000000000000015;-9979272794.0;-9979205933.0;3279.0;-16.886991238822183;-0.2536965322047472;-0.10487198786867619;-3953.843860998403;-166.66666666666666;-3787.1771943317367
0.05200000000000002;-9979363630.0;-9979216919.0;-15084.0;-22.70917313008209;-7.236711046658456;-1.0054924625916772;-1455.5454728149764;0.0;-1455.5454728149764
0.05600000000000002;-9979514791.0;-9979222412.0;-86001.0;-37.790233311738966;-2.9506833717897534;-21.31210379978854;-3770.2650454142195;-250.0;-3520.2650454142195
0.060000000000000026;-9979741306.0;-9979277344.0;-145687.0;-56.62879788991642;-15.328587307587267;-22.067096195885558;-4709.641144544364;-416.6666666666667;-4292.974477877697
0.06400000000000003;-9980058862.0;-9979365234.0;-238481.0;-79.38888045700287;-24.643969983510672;-34.83595424386859;-5690.020641771613;-1416.6666666666667;-4273.353975104946
0.06800000000000003;-9980483300.0;-9979639893.0;-225992.0;-106.109607753239;-71.99783473678679;-7.1041180503164725;-6680.181824059034;-3333.3333333333335;-3346.8484907257002
0.07200000000000004;-9981030181.0;-9980090332.0;-134952.0;-136.72015665404484;-110.52580756388605;12.578816104088418;-7652.63722520146;-7416.666666666667;-235.97055853479264
0.07600000000000004;-9981716676.0;-9980606689.0;-90954.0;-171.62370153994218;-130.8967267170772;7.34984137594985;-8725.886221474333;-8583.333333333334;-142.5528881409992
0.08000000000000004;-9982563585.0;-9981238403.0;-60758.0;-211.72729589443315;-163.81820060543717;9.793212456892974;-10025.898588622746;-8166.666666666667;-1859.231921956078
0.08400000000000005;-9983592137.0;-9982023926.0;-24514.0;-257.13796247049675;-197.66522124058753;8.874744116018974;-11352.666644015897;-7000.0;-4352.666644015898
0.08800000000000005;-9984818828.0;-9982963257.0;-3170.0;-306.67274728689097;-237.9605126419142;8.273378989886965;-12383.696204098556;-7833.333333333333;-4550.362870765222
0.09200000000000005;-9986255398.0;-9984083862.0;11388.0;-359.14256551028836;-282.43954359243065;6.611171047753089;-13117.454555849348;-9750.0;-3367.454555849349
0.09600000000000006;-9987910494.0;-9985352783.0;-28435.0;-413.77400268270816;-316.355050740242;-12.537016751470446;-13657.859293104948;-10083.333333333334;-3574.5259597716145
0.10000000000000006;-9989789855.0;-9986819458.0;-83742.0;-469.84022730904854;-366.9461231724322;-18.574033219256137;-14016.556156585097;-10583.333333333334;-3433.2228232517627
0.10400000000000006;-9991896526.0;-9988439941.0;-205992.0;-526.6676055118254;-410.06945390408487;-37.97334473097942;-14206.844550694213;-10583.333333333334;-3623.51121736088
0.10800000000000007;-9994231542.0;-9990324097.0;-290008.0;-583.7538987832654;-478.35043135514854;-31.09293044854587;-14271.573317860004;-11333.333333333334;-2938.239984526669
0.11200000000000007;-9996794804.0;-9992460938.0;-349041.0;-640.815593192311;-533.0939580948949;-36.81695780656537;-14265.423602261393;-13916.666666666666;-348.7569355947269
0.11600000000000008;-9999585809.0;-9994757080.0;-477074.0;-697.7510633834753;-578.056339137882;-56.611579889932955;-14233.867547791078;-14000.0;-233.86754779107832
0.12000000000000008;-10002604075.0;-9997294922.0;-591453.0;-754.5665931355716;-637.2694313328863;-61.273020307858815;-14203.882438024068;-14000.0;-203.88243802406691
0.12400000000000008;-10005849310.0;-10000057983.0;-708168.0;-811.3087443209433;-692.6227296141908;-69.81127730262983;-14185.537796342942;-12916.666666666666;-1268.8711296762758
0.12800000000000009;-10009321401.0;-10003040771.0;-832304.0;-868.0226885098031;-749.4754717149287;-77.19383427494415;-14178.486047214932;-13750.0;-428.4860472149319
0.1320000000000001;-10013020346.0;-10006259766.0;-947159.0;-924.7361687706386;-808.2654186887294;-82.02658480565594;-14178.370065208896;-14250.0;71.62993479110469
0.1360000000000001;-10016946185.0;-10009731445.0;-1036186.0;-981.4596997856244;-865.9101502629742;-86.43739875533026;-14180.882753746431;-14666.666666666666;485.783912920235
0.1400000000000001;-10021098958.0;-10013466797.0;-1088409.0;-1038.1931660398282;-936.5541918638721;-75.64420510056027;-14183.366563550948;-15083.333333333334;899.9667697823863
0.1440000000000001;-10025478688.0;-10017460327.0;-1109365.0;-1094.9324540451453;-1002.9547788220495;-67.2283894333284;-14184.822001329281;-15833.333333333334;1648.5113320040537
0.1480000000000001;-10030085382.0;-10021695557.0;-1115563.0;-1151.673565229395;-1062.482015405491;-64.80874912322315;-14185.277796062452;-16000.0;1814.7222039375492
0.1520000000000001;-10034919039.0;-10026106567.0;-1172941.0;-1208.4141586807186;-1109.069342861019;-78.40407842311697;-14185.148362830887;-15083.333333333334;898.184970502447
0.1560000000000001;-10039979478.0;-10030797729.0;-1177130.0;-1265.1097705041882;-1172.625715638578;-71.8399408741916;-14173.90295586739;-14666.666666666666;492.7637107992755
0.16000000000000011;-10045266164.0;-10035807495.0;-1089607.0;-1321.6712820255057;-1252.9915231965929;-42.94551528842658;-14140.377880329368;-15083.333333333334;942.9554530039663
0.16400000000000012;-10050778377.0;-10040949097.0;-1096818.0;-1378.0532562803573;-1278.9022174441368;-74.11018775412253;-14095.49356371292;-16333.333333333334;2237.839769620413
0.16800000000000012;-10056513179.0;-10046348877.0;-1071817.0;-1433.7003961552434;-1360.430730356358;-47.57272838629319;-13911.78496872152;-13750.0;-161.78496872151982
0.17200000000000013;-10062463028.0;-10052089233.0;-930605.0;-1487.4621254607378;-1423.5825449217707;-32.03986970207961;-13440.432326373582;-16000.0;2559.567673626418
0.17600000000000013;-10068617868.0;-10057824097.0;-1014502.0;-1538.7100418256555;-1441.4329175149799;-74.1272268227251;-12811.979091229432;-12750.0;-61.979091229432015
0.18000000000000013;-10074966381.0;-10063916016.0;-952447.0;-1587.1281319750703;-1530.7002984749079;-33.91263494317491;-12104.522537353716;-14000.0;1895.4774626462836
0.18400000000000014;-10081494162.0;-10070233154.0;-865737.0;-1631.9452198504018;-1579.4694079998062;-30.081589277455805;-11204.27196883287;-12750.0;1545.7280311671298
0.18800000000000014;-10088183387.0;-10076605225.0;-912121.0;-1672.306075038779;-1594.0740300192535;-65.2669372844739;-10090.213797094293;-13250.0;3159.786202905707
0.19200000000000014;-10095013697.0;-10083257446.0;-850640.0;-1707.577384216337;-1667.8715687709077;-30.851899399034664;-8817.827294389474;-12416.666666666666;3598.839372277192
0.19600000000000015;-10101962877.0;-10090036011.0;-816293.0;-1737.29499034828;-1683.7458933264165;-51.285795301271946;-7429.401532985765;-11166.666666666666;3737.2651336809017
0.20000000000000015;-10109007305.0;-10096880493.0;-848424.0;-1761.1069401338104;-1727.148453073509;-42.91026980924585;-5952.987446382622;-8333.333333333334;2380.345886950712
0.20400000000000015;-10116124682.0;-10103999634.0;-715531.0;-1779.3441655203999;-1775.7321626534165;-13.761627124669076;-4559.306346647361;-10916.666666666666;6357.360320019305
0.20800000000000016;-10123296977.0;-10111069336.0;-718622.0;-1793.073635783749;-1764.6024041219205;-46.713107777732375;-3432.3675658372963;-7166.666666666667;3734.2991008293707
0.21200000000000016;-10130508670.0;-10118298340.0;-628341.0;-1802.9232030148162;-1817.3018529851586;-5.079434229084654;-2462.391807766778;-7416.666666666667;4954.274858899889
0.21600000000000016;-10137745633.0;-10125510864.0;-603411.0;-1809.2405056837238;-1800.608128307745;-32.49492086872783;-1579.3256672268967;-5166.666666666667;3587.3409994397703
0.22000000000000017;-10144996952.0;-10132772827.0;-562930.0;-1812.8297513586126;-1825.3429701336995;-13.803032373500855;-897.3114187222109;-1916.6666666666667;1019.3552479444559
0.22400000000000017;-10152255222.0;-10140144653.0;-433611.0;-1814.5674832690727;-1830.6926043618098;-5.9506257047464715;-434.43297761501753;-5333.333333333333;4898.900355718315
0.22800000000000017;-10159515781.0;-10147390137.0;-442117.0;-1815.1395502654134;-1815.64256196028;-24.38216221237917;-143.01674908517725;-333.3333333333333;190.31658424815606
0.23200000000000018;-10166776182.0;-10154723511.0;-367880.0;-1815.100346127805;-1824.5895249668583;-12.26739190483272;9.801034402073583;-2166.6666666666665;2176.46770106874
0.23600000000000018;-10174035564.0;-10161985474.0;-366400.0;-1814.8454150713108;-1815.9905898998827;-21.114064582410265;63.73276412358564;1583.3333333333333;-1519.6005692097476
0.24000000000000019;-10181293955.0;-10169445190.0;-166682.0;-1814.5975100732169;-1855.7752981816307;30.77487852269428;61.97624952346814;-1750.0;1811.9762495234681
0.2440000000000002;-10188551715.0;-10176723633.0;-147234.0;-1814.4398749209292;-1822.7156657876894;-0.8669925621798029;39.40878807190984;-1166.6666666666667;1206.0754547385766
0.2480000000000002;-10195809205.0;-10184078979.0;-50034.0;-1814.3724048767704;-1840.6069420638084;23.0684392971159;16.867511039720284;-333.3333333333333;350.2008443730536
0.25200000000000017;-10203066655.0;-10191368408.0;-18262.0;-1814.3624166777836;-1818.5469851562382;3.0372174102417375;2.497049746693847;416.6666666666667;-414.16961691997284
0.25600000000000017;-10210324161.0;-10198718262.0;74116.0;-1814.3764240039575;-1842.8501508210377;32.928270776732916;-3.5018315434740543;1583.3333333333333;-1586.8351648768073
0.2600000000000002;-10217581733.0;-10206051636.0;150017.0;-1814.3929923073372;-1824.5554671288953;19.18845824049754;-4.142075844924875;-1583.3333333333333;1579.1912574884084
0.2640000000000002;-10224839347.0;-10213291626.0;132476.0;-1814.4033251735907;-1806.720493669048;0.2861426658655546;-2.5832165633801196;1500.0;-1502.5832165633801
0.2680000000000002;-10232096974.0;-10220581055.0;164316.0;-1814.406755639549;-1813.7030359258802;9.16500387843871;-0.8576164895544025;333.3333333333333;-334.1909498228877
0.2720000000000002;-10239354598.0;-10227788086.0;113728.0;-1814.4059188458302;-1808.9437931773514;1.3628484217638288;0.20919842967259683;3416.6666666666665;-3416.457468236994
0.2760000000000002;-10246612213.0;-10235110474.0;178491.0;-1814.4036301796043;-1826.9731265290902;23.276182765509475;0.5721665564806244;-166.66666666666666;167.23883322314728
0.2800000000000002;-10253869820.0;-10242366943.0;177339.0;-1814.4016234162905;-1817.7101991532595;13.945522824918271;0.5016908284574129;-166.66666666666666;167.16835749512407
0.2840000000000002;-10261127422.0;-10249639893.0;192677.0;-1814.4004984263158;-1823.0854536857084;20.243225746297185;0.28124749366043034;-916.6666666666666;916.9479141603271
0.2880000000000002;-10268385023.0;-10256901855.0;197034.0;-1814.4001573427147;-1805.7259418800622;3.1467927462992975;0.08527090028564999;-416.6666666666667;416.75193756695234
0.2920000000000002;-10275642624.0;-10264196777.0;234355.0;-1814.4002575751306;-1832.3288382463231;31.989768462545726;-0.025058103972241952;833.3333333333334;-833.3583914373056
0.2960000000000002;-10282900227.0;-10271497192.0;277169.0;-1814.4004909072546;-1813.4461487315223;15.67608964971987;-0.05833303100644116;-1750.0;1749.9416669689936
0.3000000000000002;-10290157830.0;-10278759155.0;281530.0;-1814.4006825473816;-1817.2112981378957;19.702748637541845;-0.04791003175341757;1166.6666666666667;-1166.7145766984202
0.3040000000000002;-10297415433.0;-10286048584.0;313356.0;-1814.400778973379;-1814.7888618963882;19.18965637397173;-0.024106499324716424;-1250.0;1249.9758935006753
0.3080000000000002;-10304673037.0;-10293255615.0;262784.0;-1814.4007958763352;-1804.8028857644276;6.169206108530261;-0.0042257390759914415;2416.6666666666665;-2416.6708924057425
0.3120000000000002;-10311930640.0;-10300682373.0;431938.0;-1814.400770456258;-1850.7239872959854;62.23948218580881;0.0063550193090122775;-1583.3333333333333;1583.3396883526423
0.3160000000000002;-10319188244.0;-10307938843.0;430805.0;-1814.400733980197;-1817.4333159210532;28.880830222447457;0.009119015260239394;-1000.0;1000.0091190152602
0.32000000000000023;-10326445847.0;-10315200806.0;435164.0;-1814.400703177408;-1815.7086259040236;27.417709760980415;0.007700697210566432;-333.3333333333333;333.3410340305439
0.32400000000000023;-10333703450.0;-10322446289.0;423044.0;-1814.400682478132;-1810.375685666673;21.35760368560682;0.005174819023068267;1250.0;-1249.994825180977
0.32800000000000024;-10340961053.0;-10329856567.0;575719.0;-1814.4006696785018;-1854.9740773621202;75.1165222110767;0.0031999075531530252;666.6666666666666;-666.6634667591135
0.33200000000000024;-10348218656.0;-10337167969.0;629518.0;-1814.4006608096506;-1820.9608439440951;44.331246419481886;0.0022172127955855103;-3083.3333333333335;3083.335550546129
0.33600000000000024;-10355476259.0;-10344385986.0;589932.0;-1814.4006527492884;-1813.6473877827898;34.6426415456383;0.0020150905584159773;666.6666666666666;-666.6646515761082
0.34000000000000025;-10362733862.0;-10351625977.0;572320.0;-1814.4006439277578;-1812.7675319954828;32.70607432955876;0.0022053826569390367;1583.3333333333333;-1583.3311279506763
0.34400000000000025;-10369991465.0;-10358865967.0;554707.0;-1814.4006340187202;-1814.9613776219637;33.843148323052446;0.0024772593860689085;3416.6666666666665;-3416.6641894072804
0.34800000000000025;-10377249067.0;-10366160889.0;592026.0;-1814.4006233084076;-1824.8936264128163;46.014546362256624;0.0026775781520882447;-1000.0;1000.0026775781521
0.35200000000000026;-10384506670.0;-10373340454.0;513988.0;-1814.400612220396;-1797.4716391526385;13.910289322295284;0.0027720029152078496;-83.33333333333333;83.33610533624854
0.35600000000000026;-10391764273.0;-10380596924.0;512856.0;-1814.4006010645774;-1812.379416998282;28.750158023283348;0.002788954645893682;333.3333333333333;-333.3305443786874
0.36000000000000026;-10399021876.0;-10387798462.0;456791.0;-1814.4005899907042;-1800.3482680792065;13.355120216972637;0.002768468277736247;1000.0;-999.9972315317223
0.36400000000000027;-10406279478.0;-10395060425.0;461151.0;-1814.4005790163776;-1817.4787589435875;30.74722220442277;0.0027435816605247965;416.6666666666667;-416.66392308500616
0.36800000000000027;-10413537081.0;-10402278442.0;421565.0;-1814.4005681130316;-1791.338632327132;2.2319466226119857;0.002725836509398505;-1333.3333333333333;1333.3360591698427
0.3720000000000003;-10420794683.0;-10409529419.0;414940.0;-1814.4005572321919;-1819.5525598808974;30.048385123250227;0.0027202099204259866;1000.0;-999.9972797900796
0.3760000000000003;-10428052286.0;-10416774902.0;402820.0;-1814.4005463426954;-1803.8511087752954;13.619744912409033;0.002722374119912274;-1416.6666666666667;1416.6693890407867
0.3800000000000003;-10435309888.0;-10423970947.0;341263.0;-1814.4005354306933;-1806.616242952399;12.691469973973653;0.002728000538354536;1916.6666666666667;-1916.6639386661284
0.3840000000000003;-10442567491.0;-10431238403.0;351116.0;-1814.4005245002247;-1818.7943779353575;25.460795855309016;0.002732617133460735;-1166.6666666666667;1166.6693992838002
0.3880000000000003;-10449825093.0;-10438428955.0;284066.0;-1814.4005135518664;-1799.007393525094;1.6508223642172197;0.0027370895736567036;1083.3333333333333;-1083.3305962437596
0.3920000000000003;-10457082696.0;-10445707397.0;304905.0;-1814.4005025919669;-1822.8129559516385;26.706735728238982;0.0027399748887546593;-750.0;750.0027399748888
0.3960000000000003;-10464340298.0;-10452859497.0;199403.0;-1814.4004916176395;-1787.6211976273582;-14.815131643133782;0.002743581831055053;83.33333333333333;-83.33058975150227
0.4000000000000003;-10471597900.0;-10460110474.0;192777.0;-1814.4004806404275;-1816.165959353365;13.33208104833966;0.00274430300351014;1333.3333333333333;-1333.3305890303297
0.4040000000000003;-10478855502.0;-10467383423.0;208124.0;-1814.4004696551362;-1815.200640398331;13.287593068691649;0.002746322820712521;-1416.6666666666667;1416.6694129894875
0.4080000000000003;-10486113105.0;-10474535522.0;102621.0;-1814.4004586571493;-1796.5776279647425;-11.665588384335024;0.0027494967298480333;916.6666666666666;-916.6639171699368
0.4120000000000003;-10493370707.0;-10481781006.0;90503.0;-1814.4004476551224;-1809.2678370211572;0.29755166224686036;0.002750506723714352;-916.6666666666666;916.6694171733903
0.4160000000000003;-10500628309.0;-10488878174.0;-69932.0;-1814.4004366450165;-1781.4066817709431;-37.189692588615344;0.0027525264840733144;2750.0;-2749.997247473516
0.4200000000000003;-10507885911.0;-10496134644.0;-71064.0;-1814.4004256245235;-1814.1040696259513;-4.560213728356075;0.0027551232619771326;333.3333333333333;-333.33057821007134
0.4240000000000003;-10515143513.0;-10503314209.0;-149101.0;-1814.400414595374;-1789.7416501566693;-33.60484218327292;0.0027572873477765825;-500.0;500.0027572873478
0.4280000000000003;-10522401115.0;-10510548706.0;-172206.0;-1814.4004035581456;-1811.6247280918808;-13.108053224376818;0.0027593071081355447;-416.6666666666667;416.6694259737748
0.43200000000000033;-10529658717.0;-10517684326.0;-294188.0;-1814.4003925174545;-1777.3999238714575;-54.65176641242829;0.002760172776561376;-750.0;750.0027601727766
0.43600000000000033;-10536916319.0;-10524913330.0;-322786.0;-1814.4003814669534;-1816.5764990442099;-17.19106020110189;0.0027626252858681255;2083.3333333333335;-2083.3305707080476
0.44000000000000034;-10544173921.0;-10532169800.0;-323918.0;-1814.4003704031788;-1808.2529418699817;-25.58252633086363;0.002765943634130963;-2166.6666666666665;2166.6694326103006
0.44400000000000034;-10551431522.0;-10539360352.0;-390968.0;-1814.400359341713;-1800.5528079110236;-37.30564923413522;0.0027653664460558502;83.33333333333333;-83.33056796688727
0.44800000000000034;-10558689124.0;-10546638794.0;-370127.0;-1814.4003482675514;-1819.2394839775861;-17.36850210466173;0.002768540412034781;-1833.3333333333333;1833.3361018737453
0.45200000000000035;-10565946726.0;-10553834839.0;-431684.0;-1814.4003371881963;-1797.934228525944;-42.36716648987226;0.002769838772564981;666.6666666666666;-666.6638968278941
0.45600000000000035;-10573204327.0;-10561168213.0;-355912.0;-1814.4003261007617;-1823.5712289071084;-12.183835032574052;0.002771858646610781;-1416.6666666666667;1416.6694385253134
0.46000000000000035;-10580461929.0;-10568358765.0;-422961.0;-1814.4003150115957;-1796.7323394880295;-43.04565336909218;0.002772291509245406;-500.0;500.00277229150925
0.46400000000000036;-10587719531.0;-10575532837.0;-506491.0;-1814.4003039114657;-1798.6092173477932;-46.18056442128295;0.002775032498902874;1750.0;-1749.997224967501
0.46800000000000036;-10594977132.0;-10582684937.0;-611993.0;-1814.400292807873;-1777.7502052367404;-73.36968543875491;0.0027758981673287053;1583.3333333333333;-1583.330557435166
