Zeit[sec];Sollposition[°];Istposition[°];Positionsschleppfehler[°];Sollgeschwindigkeit[°/s];Istgeschwindigkeit[°/s];Geschwindigkeitsdifferenz[°/s];Sollbeschleunigung[°/s*s];Istbeschleunigung[°/s*s];Beschleunigungsdifferenz[°/s*s]
0.0;9817499999.0;9817503662.0;-3663.0;0.0;2.087051817089319;-2.3068318171396553;0.0;0.0;0.0
0.004;9817499999.0;9817498169.0;1830.0;0.0;-1.4425437315925955;1.55234373160424;0.0;0.0;0.0
0.008;9817499999.0;9817498169.0;1830.0;0.0;-1.1358308130726218;1.2456308130842664;0.0;0.0;0.0
0.012;9817499999.0;9817503662.0;-3663.0;0.0;0.5941993203163147;-0.8139793203666508;0.0;0.0;0.0
0.016;9817499999.0;9817503662.0;-3663.0;0.0;0.4559573722779751;-0.6757373723283112;0.0;0.0;0.0
0.02;9817499999.0;9817503662.0;-3663.0;0.0;1.4522466792538762;-1.6720266793042122;0.0;0.0;0.0
0.024;9817499999.0;9817503662.0;-3663.0;0.0;0.7812758111581206;-1.0010558112084567;0.0;0.0;0.0
0.028;9817499999.0;9817503662.0;-3663.0;0.0;0.6485311482772231;-0.8683111483275592;0.0;0.0;0.0
0.032;9817499999.0;9817498169.0;1830.0;0.0;-2.3650830431431533;2.474883043154798;0.0;0.0;0.0
0.036000000000000004;9817499999.0;9817498169.0;1830.0;0.0;-1.9414389757514001;2.0512389757630447;0.0;0.0;0.0
0.04000000000000001;9817499823.0;9817503662.0;-3663.0;-0.044231627727748676;1.6050812566801906;-1.8248612567305267;-11.057906931937168;0.0;-11.057906931937168
0.04400000000000001;9817498059.0;9817498169.0;1760.0;-0.44079792500008186;-1.960619861908257;2.04868271262709;-99.1415743180833;0.0;-99.1415743180833
0.048000000000000015;9817489393.0;9817503662.0;-4538.0;-2.16661118412841;0.7328201555535198;-1.2063049542119368;-431.45331478208203;0.0;-431.45331478208203
0.05200000000000002;9817460747.0;9817487183.0;7449.0;-7.161388721582709;-5.12446342716366;4.448671141382743;-1248.6943843635747;0.0;-1248.6943843635747
0.05600000000000002;9817305338.0;9817487183.0;-9098.0;-38.852279907662265;-5.358982798911631;0.6762525516486404;-7922.722796519889;0.0;-7922.722796519889
0.060000000000000026;9817098181.0;9817476196.0;-76899.0;-51.78918957838611;-7.233644168145955;-17.07736146386402;-3234.2274176809606;-166.66666666666666;-3067.560751014294
0.06400000000000003;9816763915.0;9817349854.0;-125741.0;-83.5665758982658;-35.643888615645466;-15.696445021823664;-7944.3465799699225;-1250.0;-6694.3465799699225
0.06800000000000003;9816264951.0;9817113647.0;-146784.0;-124.74114132353016;-57.87404542068392;-15.245619106804732;-10293.641356316091;-3916.6666666666665;-6376.974689649424
0.07200000000000004;9815555796.0;9816696167.0;-128126.0;-177.28855554302237;-107.31837841876596;-0.07463369509197548;-13136.853554873052;-6416.666666666667;-6720.186888206385
0.07600000000000004;9814585716.0;9816102905.0;-116200.0;-242.51995348253033;-150.30402070707828;-2.0020920819259516;-16307.84948487699;-9333.333333333334;-6974.516151543656
0.08000000000000004;9813305938.0;9815278931.0;-103602.0;-319.944488980784;-208.92475096537174;-0.13525961481565218;-19356.13387456342;-10750.0;-8606.133874563418
0.08400000000000005;9811672478.0;9814174805.0;-90818.0;-408.3650961851024;-282.1742644248232;3.8898275978842207;-22105.1518010796;-13333.333333333334;-8771.818467746267
0.08800000000000005;9809647786.0;9812834473.0;-168679.0;-506.172962892434;-339.4539217834398;-25.215036994179684;-24451.966676832897;-15083.333333333334;-9368.633343499561
0.09200000000000005;9807203112.0;9811126099.0;-246810.0;-611.1683557181245;-431.90496508868785;-29.529932502705947;-26248.848206422637;-16916.666666666668;-9332.181539755968
0.09600000000000006;9804318142.0;9809049683.0;-359310.0;-721.242554655469;-524.6825710557326;-44.10493157007784;-27518.54973433612;-19583.333333333332;-7935.216401002787
0.10000000000000006;9800979838.0;9806555786.0;-482196.0;-834.5758802107954;-630.276330661431;-52.8512776460758;-28333.331388831597;-21916.666666666668;-6416.664722164927
0.10400000000000006;9797181518.0;9803562012.0;-550552.0;-949.5801358948414;-752.8217930189744;-45.74380837654792;-28751.063921011508;-25666.666666666668;-3084.3972543448394
0.10800000000000007;9792921051.0;9800073853.0;-580430.0;-1065.1166074083249;-872.2797639182061;-42.05524427536079;-28884.11787837086;-28333.333333333332;-550.7845450375264
0.11200000000000007;9788198792.0;9796129761.0;-615197.0;-1180.5648386118212;-997.3847583658621;-34.241750166017255;-28862.057800874085;-29583.333333333332;721.2755324592486
0.11600000000000008;9783015928.0;9791768188.0;-694476.0;-1295.7159160031958;-1096.236934197411;-55.64468149169102;-28787.769347843663;-29583.333333333332;795.5639854896681
0.12000000000000008;9777373542.0;9786824341.0;-652805.0;-1410.5963536333422;-1247.1221896374077;-17.59009744488253;-28720.109407536598;-28833.333333333332;113.22392579673487
0.12400000000000008;9771273051.0;9781501465.0;-692287.0;-1525.1226858523532;-1325.7470766461565;-56.37964452646406;-28631.58305475275;-30833.333333333332;2201.7502785805796
0.12800000000000009;9764717385.0;9775750122.0;-762269.0;-1638.916440092036;-1446.9921394406929;-54.0751278792377;-28448.4385599207;-27833.333333333332;-615.1052265873709
0.1320000000000001;9757711376.0;9769449463.0;-739887.0;-1751.502177185364;-1566.2939010080845;-47.668397644985134;-28146.434273331975;-29833.333333333332;1686.8990600013553
0.1360000000000001;9750264079.0;9762681885.0;-703862.0;-1861.8240813302225;-1700.529937509209;-24.589947909424836;-27580.476036214633;-27416.666666666668;-163.80936954796607
0.1400000000000001;9742392138.0;9755562744.0;-763055.0;-1967.9851744285352;-1787.4052734998613;-52.96143284590562;-26540.27327457817;-30333.333333333332;3793.060058755163
0.1440000000000001;9734120010.0;9747861328.0;-674715.0;-2068.0318623442545;-1928.3725320056678;-15.37924656389987;-25011.671978929826;-27916.666666666668;2904.994687736842
0.1480000000000001;9725479748.0;9739951172.0;-792679.0;-2160.065472221142;-1983.968268759273;-70.62255654349065;-23008.40246922189;-27583.333333333332;4574.93086411144
0.1520000000000001;9716511186.0;9731409302.0;-666552.0;-2242.1404496258265;-2146.4312738576905;2.502614284452193;-20518.74435117111;-25750.0;5231.255648828892
0.1560000000000001;9707260433.0;9722691650.0;-717171.0;-2312.688053317259;-2181.3088102481515;-53.78910865955322;-17636.900922858105;-26500.0;8863.099077141896
0.16000000000000011;9697776739.0;9713501587.0;-605631.0;-2370.9234562188235;-2309.4359760562106;3.4675519436682407;-14558.850725391152;-22666.666666666668;8107.815941275515
0.16400000000000012;9688109226.0;9704196167.0;-641668.0;-2416.877963295291;-2331.5721892441734;-42.292006529964965;-11488.626769116876;-22833.333333333332;11344.706564216456
0.16800000000000012;9678305253.0;9694522705.0;-523416.0;-2450.9931449742444;-2427.6495258251502;7.442088653512656;-8528.795419738344;-16166.666666666666;7637.871246928322
0.17200000000000013;9668407565.0;9684860229.0;-581481.0;-2474.4220969283497;-2421.0990963587687;-43.92459873258622;-5857.237988526322;-16583.333333333332;10726.09534480701
0.17600000000000013;9658450868.0;9674983521.0;-545102.0;-2489.1740468465305;-2472.4056152685657;-20.38296943555497;-3687.9874795451997;-9666.666666666666;5978.679187121466
0.18000000000000013;9648461755.0;9664985962.0;-468078.0;-2497.278200286001;-2510.5528809128105;2.334465356437704;-2026.0383598675844;-9833.333333333334;7807.2949734657495
0.18400000000000014;9638459090.0;9655004883.0;-456203.0;-2500.6661059267453;-2500.131252434246;-19.541707417091402;-846.9764101861301;-6333.333333333333;5486.356923147203
0.18800000000000014;9628453938.0;9644919434.0;-365050.0;-2501.2879271114666;-2503.9328194162176;-16.54414724628532;-155.45529618032106;-6416.666666666667;6261.211370486346
0.19200000000000014;9618451117.0;9634894409.0;-343597.0;-2500.704909044612;-2519.898042831905;-1.6105744689793937;145.75451671362316;-1333.3333333333333;1479.0878500469564
0.19600000000000015;9608451573.0;9624814453.0;-267854.0;-2499.8859528967123;-2502.281208631858;-14.843157442332085;204.73903697495643;-2250.0;2454.7390369749564
0.20000000000000015;9598454475.0;9614750977.0;-205914.0;-2499.2743078923795;-2521.92116163373;9.182699784058059;152.91125108319648;1166.6666666666667;-1013.7554155834703
0.20400000000000015;9588458625.0;9604731445.0;-184975.0;-2498.9623604768726;-2510.406828456074;-0.33991532444724726;77.98685387672322;-1416.6666666666667;1494.65352054339
0.20800000000000016;9578463124.0;9594673462.0;-123610.0;-2498.8752623127007;-2506.198847108245;-0.3719623654287716;21.77454104298704;1500.0;-1478.225458957013
0.21200000000000016;9568467518.0;9584670410.0;-116277.0;-2498.901339968491;-2518.158042781152;12.251767548482803;-6.5194139475579505;583.3333333333334;-589.8527472808913
0.21600000000000016;9558471692.0;9574683838.0;-125249.0;-2498.956310129766;-2482.0176854916217;-24.383366544920136;-13.74254031873079;0.0;-13.74254031873079
0.22000000000000017;9548475700.0;9564625854.0;-62958.0;-2498.9980895384433;-2518.225729426257;15.525267446461385;-10.444852169371188;1750.0;-1760.4448521693712
0.22400000000000017;9538479632.0;9554644775.0;-77769.0;-2499.016657262464;-2493.624704277575;-10.013988644171604;-4.64193100515331;-1500.0;1495.3580689948467
0.22800000000000017;9528483560.0;9544658203.0;-87218.0;-2499.0179382285182;-2492.003709202066;-12.234577347600407;-0.3202415135774572;1833.3333333333333;-1833.6535748469107
0.23200000000000018;9518487514.0;9534660645.0;-85729.0;-2499.011473597366;-2510.585945272766;6.425148922476637;1.6161577880211553;83.33333333333333;-81.71717554531217
0.23600000000000018;9508491496.0;9524718018.0;-139164.0;-2499.0042941783913;-2479.8171824237033;-27.54802517391954;1.7948547437072193;916.6666666666666;-914.8718119229594
0.24000000000000019;9498495497.0;9514682007.0;-99188.0;-2498.9995721396913;-2515.564960305825;10.605015357210505;1.180509675009489;583.3333333333334;-582.1528236583239
0.2440000000000002;9488499506.0;9504706421.0;-119613.0;-2498.9976501763895;-2505.9661258143633;-0.2131182163630001;0.4804908254527618;-1166.6666666666667;1167.1471574921195
0.2480000000000002;9478503516.0;9494664917.0;-74105.0;-2498.9975860868835;-2512.206060998939;8.760923219497727;0.016022376485125278;-83.33333333333333;83.34935570981845
0.25200000000000017;9468507522.0;9484656372.0;-61551.0;-2498.9982838445394;-2515.875912444696;13.185216417339689;-0.17443941396777518;-1250.0;1249.8255605860322
0.25600000000000017;9458511525.0;9474702759.0;-103929.0;-2498.9990104133058;-2486.9157350981086;-18.31786801432918;-0.18164219159189088;0.0;-0.18164219159189088
0.2600000000000002;9448515527.0;9464611816.0;-8981.0;-2498.999462414143;-2510.269858523846;10.732430694465165;-0.11300020935323118;-250.0;249.88699979064677
0.2640000000000002;9438519528.0;9454647217.0;-40380.0;-2498.99962583635;-2499.9068756663055;-1.5151097010743797;-0.04085555167421262;333.3333333333333;-333.3741888850075
0.2680000000000002;9428523529.0;9444655151.0;-44312.0;-2498.999607460098;-2486.8104859364853;-14.847758623565824;0.004594062943397148;83.33333333333333;-83.32873927038993
0.2720000000000002;9418527531.0;9434608154.0;6686.0;-2498.999520573719;-2530.191387099989;31.592929507072768;0.021721594748669304;1583.3333333333333;-1583.3116117385846
0.2760000000000002;9408531532.0;9424676514.0;-57673.0;-2498.999436919137;-2487.1080831677245;-15.351869950961373;0.020913645471409836;-916.6666666666666;916.687580312138
0.2800000000000002;9398535534.0;9414635010.0;-12167.0;-2498.999383728041;-2495.3475245170894;-4.3819833979346186;0.01329777410319366;166.66666666666666;-166.65336889256346
0.2840000000000002;9388539537.0;9404582520.0;44324.0;-2498.9993599109584;-2524.511274417393;28.171298097500767;0.005954270591246313;-1000.0;1000.0059542705912
0.2880000000000002;9378543539.0;9394541016.0;89831.0;-2498.999353546717;-2497.8871375081985;4.277622911433809;0.0015910603679003543;-1416.6666666666667;1416.6682577270346
0.2920000000000002;9368547541.0;9384505005.0;129844.0;-2498.9993530686893;-2516.3442903016135;25.135572774339835;0.00011950692169193644;500.0;-499.9998804930783
0.2960000000000002;9358551543.0;9374485474.0;153377.0;-2498.9993515696005;-2498.7841339182405;8.987400523624729;0.0003747721848412766;-1583.3333333333333;1583.333708105518
0.3000000000000002;9348555545.0;9364378052.0;264801.0;-2498.999346706434;-2524.1212176833005;41.009925206116804;0.0012157915989519097;1250.0;-1249.998784208401
0.3040000000000002;9338559547.0;9354347534.0;299321.0;-2498.999338863542;-2515.439336893983;34.39924724378852;0.0019607230115070706;-1416.6666666666667;1416.6686273896782
0.3080000000000002;9328563549.0;9344371948.0;278909.0;-2498.9993293648686;-2493.3421172933654;11.077313668026818;0.002374668383708922;1000.0;-999.9976253316163
0.3120000000000002;9318567552.0;9334253540.0;401319.0;-2498.9993193921414;-2532.1400305103734;57.219835366957795;0.0024931817961260094;416.6666666666667;-416.66417348487056
0.3160000000000002;9308571554.0;9324343872.0;314990.0;-2498.999309607616;-2482.6528648002445;2.55293933367102;0.0024461313614665414;333.3333333333333;-333.33088720197185
0.32000000000000023;9298575556.0;9314335327.0;327537.0;-2498.999300208295;-2496.818194694057;17.47109912284077;0.0023498301970903412;1333.3333333333333;-1333.3309835031362
0.32400000000000023;9288579559.0;9304293823.0;373043.0;-2498.999291131444;-2524.39624538406;47.77951944574352;0.0022692128140988643;750.0;-749.9977307871859
0.32800000000000024;9278583561.0;9294395142.0;275727.0;-2498.9992822317245;-2482.0282537493185;-0.4274229152879343;0.0022249298581300536;750.0;-749.9977750701419
0.33200000000000024;9268587563.0;9284364624.0;310247.0;-2498.9992733887775;-2496.9439861593246;16.559518503238905;0.002210736738561536;-416.6666666666667;416.66887740340525
0.33600000000000024;9258591566.0;9274394531.0;284342.0;-2498.999264542425;-2501.404697358467;19.46593858062215;0.0022115881392892334;416.6666666666667;-416.6644550785274
0.34000000000000025;9248595568.0;9264413452.0;269424.0;-2498.999255676769;-2479.4696814305485;-3.364148502540502;0.0022164140318636782;-583.3333333333334;583.3355497473652
0.34400000000000025;9238599571.0;9254393921.0;292957.0;-2498.9992468014616;-2516.5406829323324;35.11884185324425;0.002218826807620644;1083.3333333333333;-1083.3311145065256
0.34800000000000025;9228603574.0;9244478760.0;212121.0;-2498.999237929277;-2489.4845360982567;3.2125438883786046;0.0022180461201060098;-500.0;500.0022180461201
0.35200000000000026;9218607576.0;9234464722.0;230162.0;-2498.9992290758273;-2491.483165375851;6.293642040151099;0.0022133624497655546;666.6666666666666;-666.6644533042169
0.35600000000000026;9208611579.0;9224544067.0;154819.0;-2498.999220246222;-2503.0141145077496;13.304020036727252;0.0022074012804296217;666.6666666666666;-666.6644592653862
0.36000000000000026;9198615581.0;9214628906.0;73983.0;-2498.9992114433007;-2462.417855084315;-32.14239054262498;0.0022007303641657927;-250.0;250.00220073036417
0.36400000000000027;9188619584.0;9204625854.0;81037.0;-2498.9992026611008;-2502.226396153495;8.089399345753009;0.002195549996031332;1916.6666666666667;-1916.6644711166707
0.36800000000000027;9178623587.0;9194743652.0;-32758.0;-2498.9991939053007;-2481.79414068491;-19.17054732796487;0.002188950020354241;-1000.0;1000.0021889500204
0.3720000000000003;9168627590.0;9184784546.0;-69649.0;-2498.999185169371;-2478.0828919424935;-25.095247298521826;0.002183982473979995;1250.0;-1249.997816017526
0.3760000000000003;9158631593.0;9174841919.0;-123019.0;-2498.9991764572856;-2502.4972440951096;-3.8830863978059824;0.002178021304644062;166.66666666666666;-166.664488645362
0.3800000000000003;9148635595.0;9164893799.0;-170896.0;-2498.999167765071;-2473.8592645654603;-35.39367720098198;0.0021730536445829784;-1583.3333333333333;1583.3355063869778
0.3840000000000003;9138639598.0;9154835815.0;-108910.0;-2498.9991590964173;-2522.4466581975;16.912885135393026;0.002167163415833784;83.33333333333333;-83.3311661699175
0.3880000000000003;9128643601.0;9144893188.0;-162280.0;-2498.999150450189;-2492.9087280145586;-15.827236364467353;0.00216155706311838;-2750.0;2750.002161557063
0.3920000000000003;9118647604.0;9134917603.0;-182692.0;-2498.99914182894;-2495.409982726216;-14.550692992990207;0.0021553122451223317;1333.3333333333333;-1333.3311780210881
0.3960000000000003;9108651607.0;9125007935.0;-269021.0;-2498.9991332286977;-2494.8764495078026;-20.263957574828964;0.0021500605953406193;583.3333333333334;-583.331183272738
0.4000000000000003;9098655610.0;9115087280.0;-344363.0;-2498.9991246551385;-2475.118465249494;-44.54245322002316;0.002143389792763628;1250.0;-1249.9978566102072
0.4040000000000003;9088659613.0;9105007324.0;-260404.0;-2498.9991161028693;-2514.4334031112044;-0.18996676855294936;0.002138067316082015;-500.0;500.0021380673161
0.4080000000000003;9078663616.0;9095103149.0;-352226.0;-2498.9991075764315;-2477.912088853441;-42.22059246112076;0.0021316094489520765;-1666.6666666666667;1666.6687982761157
0.4120000000000003;9068667619.0;9085034180.0;-279254.0;-2498.9990990749734;-2494.167317479506;-21.587035292925975;0.0021253645172691904;-1250.0;1250.0021253645173
0.4160000000000003;9058671623.0;9074987183.0;-228254.0;-2498.9990905996315;-2520.309181470044;7.614837214367071;0.002118835482178838;-333.3333333333333;333.3354521688155
0.4200000000000003;9048675626.0;9065011597.0;-248665.0;-2498.9990821464307;-2499.7715353809444;-14.147460383419002;0.0021133001837370102;-833.3333333333334;833.3354466335171
0.4240000000000003;9038679629.0;9054959106.0;-192170.0;-2498.999073720481;-2501.3029211966395;-9.226366101062013;0.0021064873862997047;-250.0;250.0021064873863
0.4280000000000003;9028683632.0;9044983521.0;-212582.0;-2498.999065320647;-2517.4320147557482;5.678015900421997;0.0020999585785830277;1083.3333333333333;-1083.3312333747547
0.43200000000000033;9018687636.0;9034947510.0;-172568.0;-2498.9990569480638;-2494.941803878494;-14.411346560995298;0.002093145781145722;-1083.3333333333333;1083.3354264791144
0.43600000000000033;9008691639.0;9024993896.0;-214951.0;-2498.9990485984736;-2499.313230206296;-12.582891844058395;0.002087397547256842;2083.3333333333335;-2083.3312459357862
0.44000000000000034;8998695642.0;9015001831.0;-218882.0;-2498.99904027727;-2493.5645057482197;-18.56746793831735;0.0020803008737857454;-1250.0;1250.0020803008738
0.44400000000000034;8988699646.0;9004938354.0;-151402.0;-2498.999031984169;-2508.6781907790823;0.5950254309391312;0.002073275254588225;1250.0;-1249.9979267247454
0.44800000000000034;8978703649.0;8994929810.0;-138855.0;-2498.9990237171833;-2508.9762986022533;1.645961564296158;0.002066746446871548;-1500.0;1500.0020667464469
0.45200000000000035;8968707653.0;8984948730.0;-153771.0;-2498.9990154774487;-2490.730091664262;-17.495197090844613;0.0020599336494342424;-416.6666666666667;416.6687266003161
0.45600000000000035;8958711656.0;8974797363.0;1599.0;-2498.999007265249;-2547.7619119076135;48.85883140888973;0.0020530499114101985;166.66666666666666;-166.66461361675525
0.46000000000000035;8948715660.0;8964838257.0;-35291.0;-2498.998999082287;-2500.5177716149765;-0.5987006547566125;0.002045740529865725;-1500.0;1500.0020457405299
0.46400000000000036;8938719663.0;8954780273.0;26696.0;-2498.998990926576;-2514.812956696674;17.415712627708217;0.0020389277324284194;416.6666666666667;-416.66462773893426
0.46800000000000036;8928723667.0;8944771729.0;39244.0;-2498.9989827998197;-2515.7199395872058;19.07558369053686;0.0020316890640970087;0.0;0.0020316890640970087
0.47200000000000036;8918727670.0;8934812622.0;2354.0;-2498.998974702585;-2481.9780190481915;-16.8797287041416;0.002024308628278959;1166.6666666666667;-1166.6646423580385
0.47600000000000037;8908731674.0;8924809570.0;9410.0;-2498.998966632602;-2489.393667853832;-9.040711783228744;0.0020174958308416535;583.3333333333334;-583.3313158375025
0.48000000000000037;8898735678.0;8914812012.0;10971.0;-2498.9989585929916;-2505.6368666232156;7.296155072796864;0.002009902573263389;1083.3333333333333;-1083.33132343076
0.4840000000000004;8888739681.0;8904765015.0;61972.0;-2498.998950583755;-2500.0927406665237;4.812097174215978;0.002002309201998287;-750.0;750.002002309202
