Zeit[sec];Sollposition[°];Istposition[°];Positionsschleppfehler[°];Sollgeschwindigkeit[°/s];Istgeschwindigkeit[°/s];Geschwindigkeitsdifferenz[°/s];Sollbeschleunigung[°/s*s];Istbeschleunigung[°/s*s];Beschleunigungsdifferenz[°/s*s]
0.0;0.0;5493.0;-5493.0;0.0;1.7998476891174704;-2.1294276891174704;0.0;0.0;0.0
0.004;0.0;5493.0;-5493.0;0.0;1.1422080263446808;-1.4717880263446808;0.0;0.0;0.0
0.008;0.0;5493.0;-5493.0;0.0;0.00787748284681414;-0.3374574828468142;0.0;0.0;0.0
0.012;0.0;5493.0;-5493.0;0.0;-0.3647160425226912;0.03513604252269115;0.0;0.0;0.0
0.016;0.0;5493.0;-5493.0;0.0;-0.11454562700997697;-0.21503437299002306;0.0;0.0;0.0
0.02;0.0;5493.0;-5493.0;0.0;-0.012766128851503076;-0.31681387114849696;0.0;0.0;0.0
0.024;0.0;5493.0;-5493.0;0.0;-0.10586308005384892;-0.22371691994615112;0.0;0.0;0.0
0.028;0.0;5493.0;-5493.0;0.0;0.7110802945405104;-1.0406602945405103;0.0;0.0;0.0
0.032;0.0;0.0;0.0;0.0;-1.2416561590992143;1.2416561590992143;0.0;0.0;0.0
0.036000000000000004;0.0;5493.0;-5493.0;0.0;0.7172157884889956;-1.0467957884889956;0.0;0.0;0.0
0.04000000000000001;0.0;10986.0;-10986.0;0.0;2.7991165752604976;-3.4582765752604976;0.0;0.0;0.0
0.04400000000000001;0.0;5493.0;-5493.0;0.0;-0.07286133457337236;-0.2567186654266277;0.0;0.0;0.0
0.048000000000000015;-136.0;0.0;0.0;-0.03424823454763756;-2.9202931034884623;2.9202931034884623;-8.562058636909391;0.0;-8.562058636909391
0.05200000000000002;-1502.0;5493.0;-5547.0;-0.3413067020716546;0.4404392557174699;-0.7868381455869434;-76.76461688100426;0.0;-76.76461688100426
0.05600000000000002;-8212.0;5493.0;-6170.0;-1.6775916503900055;0.04908702703473432;-0.575078472917787;-334.0712370795877;0.0;-334.0712370795877
0.060000000000000026;-30392.0;5493.0;-9647.0;-5.545012417977411;-0.14756996946035852;-1.3005736644590564;-966.8551918968514;0.0;-966.8551918968514
0.06400000000000003;-86659.0;5493.0;-22460.0;-14.066774712833592;-0.08544743715524511;-4.465286324514621;-2130.440573714045;0.0;-2130.440573714045
0.06800000000000003;-204341.0;5493.0;-58064.0;-29.420461937957032;-0.00952313083640948;-12.375414215955535;-3838.42180628086;0.0;-3838.42180628086
0.07200000000000004;-416893.0;5493.0;-138481.0;-53.13803859412907;-0.3598884104874336;-28.05331118479829;-5929.394164043009;0.0;-5929.394164043009
0.07600000000000004;-760563.0;5493.0;-293418.0;-85.91737451533378;-0.255735389637596;-56.0834920942717;-8194.833980301177;0.0;-8194.833980301177
0.08000000000000004;-1272695.0;5493.0;-557400.0;-128.03316602248233;-0.16547666174623193;-99.27408627229698;-10528.947876787139;0.0;-10528.947876787139
0.08400000000000005;-1991308.0;-32959.0;-928643.0;-179.65307629811653;-10.076741001623901;-148.06540036563868;-12904.977568908549;-333.3333333333333;-12571.644235575215
0.08800000000000005;-2953892.0;-76904.0;-1477709.0;-240.64612293019817;-14.282558579645357;-222.6328630901657;-15248.26165802041;-666.6666666666666;-14581.594991353744
0.09200000000000005;-4195020.0;-192261.0;-2176486.0;-310.2818789607901;-31.887294281222054;-302.2352715783899;-17408.93900764798;-1583.3333333333333;-15825.605674314647
0.09600000000000006;-5744125.0;-725098.0;-2715242.0;-387.27632369820935;-154.8166159627299;-275.9961350423001;-19248.611184354813;-5333.333333333333;-13915.277851021481
0.10000000000000006;-7624162.0;-2230225.0;-2571719.0;-470.00913779558044;-372.5559220328064;-122.14816922017962;-20683.20352434277;-21166.666666666668;483.46314232389534
0.10400000000000006;-9850855.0;-3911133.0;-2569321.0;-556.6732234476319;-419.5376968785204;-154.24901558444304;-21666.02141301287;-32583.333333333332;10917.31192032046
0.10800000000000007;-12432923.0;-5894165.0;-2601830.0;-645.5171066419534;-507.2259276363693;-152.76920341130938;-22210.970798580376;-31750.0;9539.029201419624
0.11200000000000007;-15373638.0;-8404541.0;-2457017.0;-735.1785953437108;-635.3998755495761;-103.41178202206174;-22415.37217543933;-25083.333333333332;2667.961157894002
0.11600000000000008;-18673049.0;-11502686.0;-2081055.0;-824.8527040456315;-773.1601476063403;-32.249068717007276;-22418.527175480194;-24666.666666666668;2248.1394911864745
0.12000000000000008;-22329942.0;-14875488.0;-1789084.0;-914.223150061974;-837.8703668729626;-39.68229112774952;-22342.611504085624;-30583.333333333332;8240.721829247708
0.12400000000000008;-26343053.0;-18402100.0;-1701517.0;-1003.2776553954022;-889.6848741659707;-72.16740108124657;-22263.626333357053;-24583.333333333332;2319.70699997628
0.12800000000000009;-30711564.0;-22434082.0;-1465569.0;-1092.127778594609;-1017.1138624925887;-19.828492500316656;-22212.530799801698;-19500.0;-2712.530799801698
0.1320000000000001;-35435133.0;-26927490.0;-1124095.0;-1180.8923066211485;-1120.1120520934082;14.682814874883661;-22191.13200663486;-21583.333333333332;-607.7986733015273
0.1360000000000001;-40513727.0;-31536255.0;-1022534.0;-1269.648421076418;-1151.874360730604;-36.27860009015717;-22189.028613817358;-23500.0;1310.9713861826435
0.1400000000000001;-45947440.0;-36507568.0;-913471.0;-1358.4280613876472;-1249.6045837767138;-20.766290755255113;-22194.910077807323;-21000.0;-1194.9100778073216
0.1440000000000001;-51736375.0;-41863403.0;-774949.0;-1447.2336229912144;-1336.6226558209876;-14.202390098816295;-22201.390400891796;-18500.0;-3701.390400891796
0.1480000000000001;-57880596.0;-47438965.0;-771859.0;-1536.0553524202626;-1399.5222892477075;-39.90713652390559;-22205.432357262056;-18750.0;-3455.4323572620547
0.1520000000000001;-64380128.0;-53519897.0;-618646.0;-1624.8827672834095;-1525.7866452973747;6.738179514586136;-22206.853715786736;-21833.333333333332;-373.5203824534033
0.1560000000000001;-71234965.0;-59996338.0;-425220.0;-1713.7093425391859;-1619.0141677441097;22.74737307983969;-22206.643813944083;-23250.0;1043.3561860559166
0.16000000000000011;-78445097.0;-66730957.0;-328924.0;-1802.5327519668317;-1690.1080979646144;10.792014641491505;-22205.852356911462;-23750.0;1544.147643088536
0.16400000000000012;-86010510.0;-73745728.0;-307777.0;-1891.3532839647257;-1754.0227413943765;-12.849846902709942;-22205.132999473506;-22416.666666666668;211.53366719316227
0.16800000000000012;-93931199.0;-81007690.0;-394728.0;-1980.1721699418308;-1818.3013477359452;-42.61058768262296;-22204.72149427627;-17333.333333333332;-4871.388160942939
0.17200000000000013;-102207162.0;-88544312.0;-562299.0;-2068.9905414390023;-1894.2052429484886;-65.58084870639073;-22204.59287429287;-16333.333333333334;-5871.259540959537
0.17600000000000013;-110838398.0;-96542358.0;-623721.0;-2157.8090500884255;-2016.0837641763655;-36.20633911701452;-22204.62716235579;-18000.0;-4204.627162355791
0.18000000000000013;-119824910.0;-105029297.0;-551523.0;-2246.627902294324;-2127.899992542399;-8.876659641409788;-22204.713051474642;-23583.333333333332;1378.6202818586908
0.18400000000000014;-129166699.0;-113735962.0;-614874.0;-2335.4470464932447;-2184.99455906353;-44.40179718085028;-22204.78604973016;-25583.333333333332;3378.547283603172
0.18800000000000014;-138863765.0;-122816162.0;-659966.0;-2424.266348396222;-2275.8610949802637;-45.059747227659045;-22204.825475744314;-23583.333333333332;1378.5078575890175
0.19200000000000014;-148915865.0;-132368774.0;-587923.0;-2513.024936670916;-2388.6480417546873;-16.76942546845521;-22189.64706867348;-22000.0;-189.64706867348013
0.19600000000000015;-159321428.0;-142465210.0;-327237.0;-2601.3906741380847;-2521.567642610764;42.99610641365598;-22091.434366792215;-25416.666666666668;3325.232299874454
0.20000000000000015;-170075690.0;-152655029.0;-327580.0;-2688.5653392612535;-2543.153525564608;-24.041775444221003;-21793.666280792197;-26833.333333333332;5039.667052541137
0.20400000000000015;-181169044.0;-163053589.0;-470766.0;-2773.338447669992;-2609.8250945605278;-53.8571642017796;-21193.277102184653;-19416.666666666668;-1776.6104355179841
0.20800000000000016;-192585866.0;-173847656.0;-563362.0;-2854.2052710052;-2710.4538315718537;-45.013651540190494;-20216.705833801938;-15833.333333333334;-4383.372500468605
0.21200000000000016;-204303510.0;-185152588.0;-478047.0;-2929.410919989675;-2821.6475028454315;-11.939479300770927;-18801.412246118845;-18750.0;-51.41224611884354
0.21600000000000016;-216292174.0;-196732178.0;-432655.0;-2997.165729788467;-2894.1295348426884;-15.379071853611094;-16938.702449697987;-25083.333333333332;8144.630883635347
0.22000000000000017;-228516257.0;-208855591.0;-132579.0;-3056.0205222207833;-3034.7923998289507;71.00367452247747;-14713.698108079028;-25750.0;11036.301891920972
0.22400000000000017;-240936597.0;-221242676.0;174090.0;-3105.0849970637064;-3081.4104122273775;71.752077684293;-12266.11871073078;-25833.333333333332;13567.214622602552
0.22800000000000017;-253512783.0;-233360596.0;-8506.0;-3144.046454354862;-3025.93215644707;-49.7071711171061;-9740.364322788879;-16500.0;6759.635677211122
0.23200000000000018;-266205579.0;-245599365.0;-250718.0;-3173.1988044856903;-3084.5043408776464;-50.78385807194809;-7288.087532707095;-5750.0;-1538.0875327070953
0.23600000000000018;-278979371.0;-258283081.0;-188509.0;-3193.447870841358;-3175.2499085344166;8.562752646969784;-5062.266588916941;-3583.3333333333335;-1478.9332555836077
0.24000000000000019;-291803889.0;-271213989.0;18173.0;-3206.129218886887;-3236.208808507594;56.2427601550944;-3170.3370113822302;-11750.0;8579.662988617769
0.2440000000000002;-304655221.0;-284183350.0;194104.0;-3212.8327770003934;-3237.369221096139;50.65828077396691;-1675.889528376615;-18250.0;16574.110471623386
0.2480000000000002;-317516625.0;-297009888.0;185790.0;-3215.3510559567794;-3197.909727806548;0.34435764445697714;-629.569739096496;-9000.0;8370.430260903504
0.25200000000000017;-330378541.0;-309534302.0;-144964.0;-3215.478728303315;-3142.3678511246353;-80.12194547303397;-31.918086633936582;3916.6666666666665;-3948.584753300603
0.25600000000000017;-343237164.0;-322250977.0;-289837.0;-3214.655638483397;-3195.2808328959513;-37.496307610590975;205.7724549795239;8333.333333333334;-8127.56087835381
0.2600000000000002;-356092209.0;-335286255.0;-115166.0;-3213.7610158034095;-3248.5600497535356;26.49845178319447;223.65566999690145;-250.0;473.65566999690145
0.2640000000000002;-368944854.0;-348228149.0;-30496.0;-3213.1610469155785;-3235.1067940257067;18.971276664535708;149.99222195774564;-7500.0;7649.992221957746
0.2680000000000002;-381796418.0;-361241455.0;128696.0;-3212.8910618307227;-3249.2667859673215;43.460166523658245;67.49627121394042;-8166.666666666667;8234.162937880606
0.2720000000000002;-394647793.0;-374018555.0;53565.0;-3212.8435182216404;-3186.1546410749233;-23.68897641573176;11.885902270591941;166.66666666666666;-154.78076439607472
0.2760000000000002;-407499372.0;-386812134.0;-4351.0;-3212.894564665774;-3214.677748178965;1.5428947025179696;-12.761611033397458;5833.333333333333;-5846.0949443667305
0.2800000000000002;-420351214.0;-399770508.0;102566.0;-3212.9602227790856;-3241.7893631282845;35.07928721330791;-16.414528327914013;1500.0;-1516.414528327914
0.2840000000000002;-433203229.0;-412706909.0;187285.0;-3213.003614429965;-3237.9001695378697;36.2169715563341;-10.847912719896158;-666.6666666666666;655.8187539467705
0.2880000000000002;-446055309.0;-425643311.0;271778.0;-3213.0199949458984;-3241.035108042869;44.36474586771146;-4.095128983294671;-4583.333333333333;4579.238204350038
0.2920000000000002;-458907384.0;-438486328.0;262755.0;-3213.0186670505955;-3204.559127284272;7.314572483646316;0.33197382572325296;-416.6666666666667;416.99864049238994
0.2960000000000002;-471759427.0;-451093140.0;17489.0;-3213.010565517711;-3158.1361947743803;-53.83383770219143;2.0253832211665213;5416.666666666667;-5414.6412834455
0.3000000000000002;-484611439.0;-463727417.0;-200296.0;-3213.0028351382157;-3167.3638791509416;-57.669343549083806;1.9325948737787257;6833.333333333333;-6831.400738459554
0.3040000000000002;-497463433.0;-476575928.0;-203816.0;-3212.998238539092;-3211.687958945204;-13.54854906774608;1.1491497808719942;3500.0;-3498.850850219128
0.3080000000000002;-510315420.0;-489462891.0;-168858.0;-3212.996676443723;-3229.4755792907345;6.343041337057912;0.39052384227034054;-3500.0;3500.3905238422703
0.3120000000000002;-523167409.0;-502481689.0;-2051.0;-3212.996932488967;-3257.7094315454588;44.588725419575894;-0.06401131099664781;-7250.0;7249.935988689003
0.3160000000000002;-536019400.0;-515357666.0;21938.0;-3212.997814250588;-3209.008074895081;-2.6724322194831984;-0.22044040520086128;-5000.0;4999.779559594799
0.32000000000000023;-548871395.0;-528046875.0;-140843.0;-3212.9986024792834;-3179.669391803871;-41.778468789531416;-0.19705717386386823;2500.0;-2500.197057173864
0.32400000000000023;-561723392.0;-540889893.0;-149818.0;-3212.9990467949556;-3208.968640674793;-13.018560929584055;-0.11107891805295367;3833.3333333333335;-3833.4444122513864
0.32800000000000024;-574575390.0;-553738403.0;-153303.0;-3212.9991813596002;-3210.625327974962;-11.57162605001804;-0.033641161166997335;2833.3333333333335;-2833.3669744945005
0.33200000000000024;-587427387.0;-566834106.0;90402.0;-3212.999140444467;-3289.8211982700327;82.24622072571219;0.010228783366983407;-3666.6666666666665;3666.6768954500335
0.33600000000000024;-600279383.0;-579984741.0;389040.0;-3212.9990458657453;-3278.7240041066843;89.06723975776549;0.02364468036830658;-8750.0;8750.023644680368
0.34000000000000025;-613131380.0;-592657471.0;209773.0;-3212.998966982541;-3163.7730625394393;-36.639660645774256;0.019720801105904684;-1416.6666666666667;1416.6863874677726
0.34400000000000025;-625983376.0;-605181885.0;-117809.0;-3212.998925222931;-3145.5905371203094;-74.47701802364827;0.010439902439429716;8000.0;-7999.989560097561
0.34800000000000025;-638835373.0;-617958984.0;-192707.0;-3212.9989145872178;-3191.7329943642467;-32.82837652346325;0.0026589283379507833;10833.333333333334;-10833.330674404995
0.35200000000000026;-651687369.0;-630889893.0;-113794.0;-3212.9989205123215;-3233.219019322111;13.392458071392866;-0.0014812759445703705;1500.0;-1500.0014812759446
0.35600000000000026;-664539365.0;-643991089.0;135405.0;-3212.9989307222177;-3270.6750575934498;65.80044059470401;-0.002552474029471341;-10250.0;10249.99744752597
0.36000000000000026;-677391362.0;-656812134.0;104454.0;-3212.998938651425;-3198.321929325204;-8.409755200458221;-0.001982301796488173;-6750.0;6749.9980176982035
0.36400000000000027;-690243358.0;-669336548.0;-223128.0;-3212.998942575081;-3142.280592523102;-84.10602128310165;-0.0009809140237848624;4666.666666666667;-4666.667647580691
0.36800000000000027;-703095354.0;-682130127.0;-281546.0;-3212.9989433706105;-3212.2003569265435;-17.691343234093438;-0.00019888238966814242;8500.0;-8500.00019888239
0.3720000000000003;-715947351.0;-695055542.0;-208127.0;-3212.9989426095094;-3232.0137680697976;6.527205202300138;0.0001902752728710766;1833.3333333333333;-1833.3331430580604
0.3760000000000003;-728799347.0;-708002930.0;-112735.0;-3212.998941525613;-3238.5529395249664;18.78989646078071;0.0002709740556383622;-6500.0;6500.000270974056
0.3800000000000003;-741651343.0;-721153564.0;185902.0;-3212.998940736551;-3276.6568221547436;74.8119999705309;0.0001972655354620656;-9250.0;9250.000197265535
0.3840000000000003;-754503340.0;-733897705.0;78047.0;-3212.9989403731033;-3170.9815029666033;-37.33461825251152;9.086193131224718e-05;-1916.6666666666667;1916.666757528598
0.3880000000000003;-767355336.0;-746493530.0;-178124.0;-3212.998940321278;-3171.208096713458;-52.47828388361404;1.295632046094397e-05;7750.0;-7749.9999870436795
0.3920000000000003;-780207333.0;-759567261.0;43610.0;-3212.9989404134526;-3266.8649208879583;56.48258053327936;-2.304363988514524e-05;4416.666666666667;-4416.666689710307
0.3960000000000003;-793059329.0;-772514648.0;139001.0;-3212.9989405272822;-3231.368411447023;26.709531088893073;-2.8457407097448595e-05;-1250.0;1249.999971542593
0.4000000000000003;-805911325.0;-785445557.0;217913.0;-3212.9989406051827;-3245.695727035483;45.77156657743626;-1.9475123735901434e-05;-6666.666666666667;6666.666647191543
0.4040000000000003;-818763322.0;-798458862.0;379222.0;-3212.998940638192;-3240.037861702009;49.79224114451108;-8.252300176536664e-06;-3666.6666666666665;3666.6666584143663
0.4080000000000003;-831615318.0;-811054688.0;123052.0;-3212.9989406405443;-3156.643884537591;-48.97193608021644;-5.881020115339197e-07;5750.0;-5750.000000588102
0.4120000000000003;-844467314.0;-823710938.0;-72695.0;-3212.998940629798;-3168.8980077103843;-48.46263292853837;2.6865336621995084e-06;5916.666666666667;-5916.666663980133
0.4160000000000003;-857319311.0;-836510010.0;-125619.0;-3212.998940617957;-3206.9210462340166;-13.615034402258516;2.96029156743316e-06;6500.0;-6499.999997039708
0.4200000000000003;-870171307.0;-849369507.0;-118118.0;-3212.998940610454;-3224.0391931630693;3.9531725379019917;1.8757191355689429e-06;-1083.3333333333333;1083.3333352090524
0.4240000000000003;-883023304.0;-862432251.0;92629.0;-3212.9989406073723;-3267.454876945523;60.013676330468115;7.704556992393918e-07;-7583.333333333333;7583.333334103789
0.4280000000000003;-895875300.0;-875220337.0;28719.0;-3212.9989406074533;-3185.911445080838;-25.364355528443866;-2.0236257114447653e-08;-5500.0;5499.999999979764
0.43200000000000033;-908727296.0;-887788696.0;-254919.0;-3212.99894060863;-3156.518442310577;-71.77563829685369;-2.942215360235423e-07;4416.666666666667;-4416.6666669608885
0.43600000000000033;-921579293.0;-900692139.0;-203472.0;-3212.9989406098466;-3227.9726221354736;2.765361527548521;-3.041122909053229e-07;4916.666666666667;-4916.666666970779
0.44000000000000034;-934431289.0;-913606567.0;-141040.0;-3212.9989406106974;-3213.6417406397563;-7.8195999693452904;-2.127080733771436e-07;333.3333333333333;-333.3333335460414
0.44400000000000034;-947283285.0;-926526489.0;-73115.0;-3212.9989406109007;-3253.9728746518904;36.58703404172229;-5.0818016461562365e-08;-4416.666666666667;4416.666666615849
0.44800000000000034;-960135282.0;-939776001.0;324401.0;-3212.9989406109007;-3302.044789130636;108.50990851986899;0.0;-8666.666666666666;8666.666666666666
0.45200000000000035;-972987278.0;-952569580.0;265984.0;-3212.9989406107384;-3189.517641749668;-7.5222588612236905;4.058620106661692e-08;-1750.0;1750.0000000405862
0.45600000000000035;-985839275.0;-965154419.0;-1174.0;-3212.9989406105356;-3158.8365626252357;-54.23281798560538;5.070432962384075e-08;4083.3333333333335;-4083.333333282629
0.46000000000000035;-998691271.0;-977887573.0;-120016.0;-3212.9989406105765;-3190.58538556418;-29.6145150464813;-1.0231815394945443e-08;10500.0;-10500.000000010232
0.46400000000000036;-1011543267.0;-990796509.0;-63077.0;-3212.9989406105356;-3231.2182966253017;14.43473601475307;1.0231815394945443e-08;4583.333333333333;-4583.333333323101
0.46800000000000036;-1024395264.0;-1003886719.0;175137.0;-3212.9989406105356;-3268.227442973886;65.73672236332413;0.0;-8000.0;8000.0
0.47200000000000036;-1037247260.0;-1016735229.0;171651.0;-3212.9989406105765;-3204.1100265084615;1.4101458979316703;-1.0231815394945443e-08;-7416.666666666667;7416.666666656435
0.47600000000000037;-1050099256.0;-1029193726.0;-221849.0;-3212.9989406105765;-3130.650462654355;-95.65941795619528;0.0;4750.0;-4750.0
0.48000000000000037;-1062951253.0;-1041954346.0;-313225.0;-3212.9989406105765;-3197.703666997995;-34.08877361256964;0.0;9000.0;-9000.0
0.4840000000000004;-1075803249.0;-1054802856.0;-316711.0;-3212.9989406104955;-3207.0506699818657;-24.950930628721835;2.0236257114447653e-08;3083.3333333333335;-3083.3333333130972
0.4880000000000004;-1088655245.0;-1067722778.0;-248786.0;-3212.9989406105765;-3238.290045092695;10.363944482164243;-2.0236257114447653e-08;-5250.0;5249.999999979764
0.4920000000000004;-1101507242.0;-1080900879.0;77319.0;-3212.9989406105765;-3289.2613954099156;80.90159479940212;0.0;-10083.333333333334;10083.333333333334
0.4960000000000004;-1114359238.0;-1093738403.0;62847.0;-3212.9989406105765;-3195.8360851932357;-13.392035417344687;0.0;-4333.333333333333;4333.333333333333
0.5000000000000003;-1127211235.0;-1106328735.0;-198818.0;-3212.9989406105765;-3170.6819289808655;-54.24609162971592;0.0;4750.0;-4750.0
