Zeit[sec];Sollposition[°];Istposition[°];Positionsschleppfehler[°];Sollgeschwindigkeit[°/s];Istgeschwindigkeit[°/s];Geschwindigkeitsdifferenz[°/s];Sollbeschleunigung[°/s*s];Istbeschleunigung[°/s*s];Beschleunigungsdifferenz[°/s*s]
0.0;9817499999.0;9817503662.0;-3663.0;0.0;2.8775208555161953;-3.0973008555665316;0.0;0.0;0.0
0.004;9817499999.0;9817498169.0;1830.0;0.0;-2.0204146125763653;2.13021461258801;0.0;-83.33333333333333;83.33333333333333
0.008;9817499999.0;9817503662.0;-3663.0;0.0;0.8627761864960194;-1.0825561865463555;0.0;0.0;0.0
0.012;9817499999.0;9817498169.0;1830.0;0.0;-2.5144852699413898;2.6242852699530346;0.0;0.0;0.0
0.016;9817499999.0;9817503662.0;-3663.0;0.0;2.0795416502207518;-2.299321650271088;0.0;-83.33333333333333;83.33333333333333
0.02;9817499999.0;9817503662.0;-3663.0;0.0;3.70097100212425;-3.9207510021745864;0.0;0.0;0.0
0.024;9817499999.0;9817503662.0;-3663.0;0.0;2.067876094676554;-2.2876560947268905;0.0;0.0;0.0
0.028;9817499999.0;9817503662.0;-3663.0;0.0;3.4292341301962734;-3.6490141302466097;0.0;0.0;0.0
0.032;9817499999.0;9817498169.0;1830.0;0.0;-2.426466371484101;2.5362663714957456;0.0;83.33333333333333;-83.33333333333333
0.036000000000000004;9817499999.0;9817492676.0;7323.0;0.0;-2.7002262306585907;3.139606230664089;0.0;0.0;0.0
0.04000000000000001;9817499350.0;9817498169.0;1830.0;-0.1622879756007222;-0.4831523874625564;0.5929523874742011;-40.57199390018055;83.33333333333333;-123.90532723351387
0.04400000000000001;9817492881.0;9817503662.0;-3921.0;-1.6173088724913671;2.0505761723294853;-2.3501808190336995;-363.75522422266124;-83.33333333333333;-280.4218908893279
0.048000000000000015;9817401836.0;9817509155.0;-12367.0;-22.761390466603128;4.983386738061905;-6.4636368585102275;-5286.02039852794;0.0;-5286.02039852794
0.05200000000000002;9817206877.0;9817492676.0;-35856.0;-48.73956868732527;-2.3166361108645797;-9.826805224346892;-6494.544555180535;0.0;-6494.544555180535
0.05600000000000002;9816803747.0;9817459717.0;-134647.0;-100.78244235631081;-10.534354072473944;-30.481907046680718;-13010.718417246386;-333.3333333333333;-12677.385083913052
0.060000000000000026;9816098206.0;9817267456.0;-219272.0;-176.38523538733637;-44.06522268690914;-38.31263635219483;-18900.69825775639;-2500.0;-16400.69825775639
0.06400000000000003;9814952033.0;9816740112.0;-213740.0;-286.54344557633374;-139.36001952741296;-3.917210259156519;-27539.552547249343;-6833.333333333333;-20706.21921391601
0.06800000000000003;9813186505.0;9815872192.0;-224293.0;-441.38195067943303;-217.02035336717964;-16.05548602268155;-38709.626275774826;-14666.666666666666;-24042.95960910816
0.07200000000000004;9810619284.0;9814553833.0;-295089.0;-641.8052872397701;-346.80968868158016;-18.184686553613687;-50105.83414008427;-19500.0;-30605.83414008427
0.07600000000000004;9807073551.0;9812565308.0;-386322.0;-886.4331853991318;-499.2575877060965;-43.86114743907024;-61156.974539840434;-28250.0;-32906.974539840434
0.08000000000000004;9802383300.0;9809791260.0;-562762.0;-1172.5625316073172;-704.2202286583781;-67.16756240304323;-71532.33655204633;-34166.666666666664;-37365.66988537967
0.08400000000000005;9796394786.0;9805951538.0;-716823.0;-1497.128569019651;-969.8724204062969;-71.58259340263226;-81141.50935308346;-46916.666666666664;-34224.842686416785
0.08800000000000005;9788981029.0;9800941772.0;-905343.0;-1853.4390332286853;-1276.5309707464278;-77.36096421250545;-89077.61605225857;-56666.666666666664;-32410.949385591914
0.09200000000000005;9780063431.0;9794487305.0;-996870.0;-2229.3993686851645;-1624.5183048741817;-71.79224172792851;-93990.0838641198;-71000.0;-22990.08386411981
0.09600000000000006;9769613610.0;9786659546.0;-1170766.0;-2612.4551300784597;-1996.6681808865667;-73.99145434421166;-95763.94034832378;-79166.66666666667;-16597.273681657112
0.10000000000000006;9757654475.0;9777123413.0;-1150922.0;-2989.783640139486;-2370.90396956075;-77.22345068001368;-94332.12751525661;-91333.33333333333;-2998.7941819232874
0.10400000000000006;9744264694.0;9766274414.0;-1341186.0;-3347.4450176307782;-2745.3762398382796;-94.91044136958135;-89415.34437282303;-91166.66666666667;1751.322293843643
0.10800000000000007;9729569563.0;9753618164.0;-1202456.0;-3673.782639078159;-3142.374149882071;-59.15308873509275;-81584.40536184514;-99166.66666666667;17582.261304821528
0.11200000000000007;9713726595.0;9739896240.0;-1379481.0;-3960.741901878857;-3450.939325823717;-106.56664755187558;-71739.81570017451;-90833.33333333333;19093.51763315881
0.11600000000000008;9696913281.0;9724575806.0;-1201629.0;-4203.328190907921;-3836.0130382946804;-21.730070244886065;-60646.57225726615;-91500.0;30853.427742733857
0.12000000000000008;9679316959.0;9708497314.0;-1344106.0;-4399.08040909536;-4022.705404322021;-113.18312881566953;-48938.054546859574;-81250.0;32311.945453140426
0.12400000000000008;9661120859.0;9691193848.0;-1158719.0;-4549.0246572841515;-4333.711068327718;-15.331554425883951;-37486.06204719795;-73333.33333333333;35847.27128613538
0.12800000000000009;9642490026.0;9673472900.0;-1267308.0;-4657.708098894537;-4422.19541625198;-111.22703871789781;-27170.860402596416;-63916.666666666664;36745.80626407025
0.1320000000000001;9623568073.0;9654966431.0;-1125789.0;-4730.488064570256;-4641.00345038522;-17.781253739442036;-18194.991418929705;-47416.666666666664;29221.67524773696
0.1360000000000001;9604472367.0;9636201782.0;-1104851.0;-4773.926328411523;-4671.039942010432;-81.17851904688996;-10859.565960316786;-43666.666666666664;32807.10070634988
0.1400000000000001;9585286861.0;9617019653.0;-911859.0;-4796.376160928393;-4803.0103062321095;1.0145538829901852;-5612.45812921743;-26833.333333333332;21220.875204115902
0.1440000000000001;9566065230.0;9597832031.0;-854529.0;-4805.407457446519;-4800.410564668656;-33.433990479918066;-2257.8241295316275;-24833.333333333332;22575.509203801703
0.1480000000000001;9546837822.0;9578518066.0;-739867.0;-4806.851936784002;-4829.773818516679;-14.44358837983782;-361.1198343705837;-9750.0;9388.880165629416
0.1520000000000001;9527617684.0;9559275513.0;-721024.0;-4805.034292223183;-4804.45489401561;-44.73379916518752;454.41114020468376;-8583.333333333334;9037.744473538018
0.1560000000000001;9508407182.0;9540038452.0;-708455.0;-4802.6252701790945;-4780.035746575482;-68.59435879483954;602.2555110221219;-1000.0;1602.255511022122
0.16000000000000011;9489203816.0;9520839844.0;-726207.0;-4800.841099639318;-4799.796328814604;-47.86589407021711;446.04263494420593;1500.0;-1053.957365055794
0.16400000000000012;9470004111.0;9501613770.0;-707862.0;-4799.92597972467;-4804.08920788303;-40.31450191825479;228.7799786620326;1666.6666666666667;-1437.8866880046342
0.16800000000000012;9450805469.0;9482376709.0;-672757.0;-4799.660448428009;-4817.104667962477;-23.749475053723472;66.38282416520269;1833.3333333333333;-1766.9505091681306
0.17200000000000013;9431606571.0;9463172607.0;-667960.0;-4799.724215043472;-4816.395291511439;-23.50837123389738;-15.941653865866101;-1000.0;984.0583461341339
0.17600000000000013;9412407068.0;9443924561.0;-618664.0;-4799.87555940961;-4794.024859390803;-42.782267351337396;-37.83609153447287;-1333.3333333333333;1295.4972417988604
0.18000000000000013;9393207096.0;9424660034.0;-553273.0;-4799.992815008112;-4826.587935150355;-6.392291937005211;-29.31389962554931;166.66666666666666;-195.98056629221597
0.18400000000000014;9374006912.0;9405527344.0;-620269.0;-4800.045778303351;-4776.19322021436;-60.94408242458212;-13.240823809610447;-1000.0;986.7591761903896
0.18800000000000014;9354806710.0;9386174927.0;-467905.0;-4800.050127946469;-4829.954612649881;1.8671855671673256;-1.0874107795189047;1500.0;-1501.087410779519
0.19200000000000014;9335606580.0;9366877441.0;-370609.0;-4800.032386148612;-4837.447051508434;15.163318971282933;4.435449464153862;-2166.6666666666665;2171.1021161308204
0.19600000000000015;9316406529.0;9347525024.0;-218365.0;-4800.0123507080625;-4824.919611690276;11.774643575694427;5.008860137422744;-2416.6666666666665;2421.6755268040893
0.20000000000000015;9297206532.0;9328194580.0;-88020.0;-4799.999070063529;-4841.994879565857;36.6891332004534;3.3201611333879555;-1500.0;1503.320161133388
0.20400000000000015;9278006557.0;9308968506.0;-61976.0;-4799.99361901426;-4796.194343110889;-7.531419424389242;1.36276231728516;-833.3333333333334;834.6960956506185
0.20800000000000016;9258806582.0;9289627075.0;79466.0;-4799.993407416842;-4838.472102391988;43.243075768048584;0.05289935438668181;2833.3333333333335;-2833.280433978947
0.21200000000000016;9239606600.0;9270439453.0;67113.0;-4799.995369042543;-4801.97370265577;6.006915596859471;-0.49040642511499755;250.0;-250.490406425115
0.21600000000000016;9220406609.0;9251174927.0;131661.0;-4799.997435570934;-4807.0266125728485;14.932086162250926;-0.5166320977423311;2083.3333333333335;-2083.849965431076
0.22000000000000017;9201206613.0;9231965332.0;141270.0;-4799.998741085022;-4808.1772714947765;16.657294599903253;-0.3263785220042337;500.0;-500.32637852200423
0.22400000000000017;9182006616.0;9212810669.0;95941.0;-4799.999236419761;-4779.620503867999;-14.62097721029022;-0.12383368471091671;1333.3333333333333;-1333.4571670180442
0.22800000000000017;9162806618.0;9193645020.0;61593.0;-4799.999217247836;-4788.501314104334;-7.802035723686458;0.004792981144419173;1833.3333333333333;-1833.3285403521888
0.23200000000000018;9143606621.0;9174561768.0;-55152.0;-4799.9990015187705;-4764.705459366798;-38.60288654934175;0.053932266382616945;1333.3333333333333;-1333.2794010669506
0.23600000000000018;9124406625.0;9155412598.0;-105980.0;-4799.998792173817;-4792.063886418939;-14.294045408010788;0.052336238468342344;2916.6666666666665;-2916.614330428198
0.24000000000000019;9105206629.0;9136290894.0;-184272.0;-4799.998667288769;-4792.940179035276;-18.115060745489245;0.03122126190646668;416.6666666666667;-416.6354454047602
0.2440000000000002;9086006634.0;9117147217.0;-240591.0;-4799.998624832577;-4777.052194781147;-37.38200910442083;0.010614048051138525;-416.6666666666667;416.6772807147178
0.2480000000000002;9066806638.0;9097871704.0;-165074.0;-4799.998631732755;-4820.925509059519;11.022417872158258;-0.0017250445125682745;-2250.0;2249.9982749554874
0.25200000000000017;9047606643.0;9078728027.0;-221392.0;-4799.998655506406;-4786.002131365873;-27.280016451328265;-0.005943412816122873;-2333.3333333333335;2333.3273899205174
0.25600000000000017;9028406647.0;9059381104.0;-74465.0;-4799.998676612299;-4842.911933664672;38.44539254645042;-0.005276473302728846;-916.6666666666666;916.6613901933639
0.2600000000000002;9009206652.0;9040286865.0;-180221.0;-4799.998688304394;-4795.554338769093;-15.25758496612616;-0.0029230236577859614;-583.3333333333334;583.3304103096756
0.2640000000000002;8990006656.0;9021000366.0;-93718.0;-4799.998691568267;-4807.248909980275;1.627148855975065;-0.0008159681783581618;0.0;-0.0008159681783581618
0.2680000000000002;8970806660.0;9001845703.0;-139050.0;-4799.9986900907525;-4802.624506836556;-5.717182693405448;0.00036937854019925;1000.0;-999.9996306214598
0.2720000000000002;8951606665.0;8982619629.0;-112972.0;-4799.998687186251;-4783.0082694788425;-23.768741484422208;0.0007261253358592512;-1333.3333333333333;1333.3340594586691
0.2760000000000002;8932406669.0;8963316650.0;-9989.0;-4799.99868473423;-4829.214636266112;28.616607318232127;0.0006130053407105152;833.3333333333334;-833.3327203279927
0.2800000000000002;8913206673.0;8944140015.0;-33349.0;-4799.998683305256;-4799.333512878806;-2.666113352289358;0.00035724337976716924;-2083.3333333333335;2083.3336905767133
0.2840000000000002;8894006678.0;8924919434.0;-12764.0;-4799.998682724469;-4801.753331930339;0.9888077481627988;0.00014519673641189002;1750.0;-1749.9998548032636
0.2880000000000002;8874806682.0;8905808716.0;-102042.0;-4799.998682587647;-4789.269100826763;-16.85210225656556;3.4205640986328945e-05;1250.0;-1249.999965794359
0.2920000000000002;8855606686.0;8886643066.0;-136387.0;-4799.9986825615315;-4777.981755789787;-30.200146883879825;6.528807716676965e-06;1666.6666666666667;-1666.666660137859
0.2960000000000002;8836406691.0;8867438965.0;-132282.0;-4799.99868246899;-4795.391926416107;-12.54367616201398;2.3135271476348862e-05;583.3333333333334;-583.3333101980619
0.3000000000000002;8817206695.0;8848262329.0;-155642.0;-4799.9986822614865;-4788.085430118993;-21.251772405980773;5.1875986173399724e-05;-1500.0;1500.0000518759862
0.3040000000000002;8798006699.0;8829008789.0;-102097.0;-4799.998681965131;-4812.270311922915;6.145809535731132;7.40888026484754e-05;-83.33333333333333;83.33340742213598
0.3080000000000002;8778806704.0;8809898071.0;-191375.0;-4799.998681622791;-4785.249140558519;-26.232041586710693;8.558504305256065e-05;-333.3333333333333;333.33341891837637
0.3120000000000002;8759606708.0;8790639038.0;-132338.0;-4799.998681269095;-4808.148873727829;0.20991189663891419;8.842403076414485e-05;333.3333333333333;-333.33324490930255
0.3160000000000002;8740406712.0;8771434937.0;-128232.0;-4799.998680918807;-4805.884917022601;-1.8076844620572956;8.757206160225905e-05;-583.3333333333334;583.333420905395
0.32000000000000023;8721206717.0;8752214355.0;-107646.0;-4799.998680577034;-4799.23557431978;-7.221866812516964;8.544316187908407e-05;-1333.3333333333333;1333.3334187764951
0.32400000000000023;8702006721.0;8732927856.0;-21143.0;-4799.9986802386675;-4817.956337445654;16.689076660305545;8.459164746454917e-05;-916.6666666666666;916.6667512583141
0.32800000000000024;8682806726.0;8713690796.0;15922.0;-4799.998679902572;-4819.509157450781;20.465797005969762;8.402389539696742e-05;-583.3333333333334;583.3334173572288
0.33200000000000024;8663606730.0;8694365845.0;140877.0;-4799.9986795627865;-4821.58346372623;30.037403618889584;8.494635039824061e-05;-1333.3333333333333;1333.3334182796837
0.33600000000000024;8644406734.0;8675227661.0;79066.0;-4799.998679217323;-4796.608170782536;1.353451012790174;8.636584425403271e-05;916.6666666666666;-916.6665803008224
0.34000000000000025;8625206739.0;8656067505.0;39226.0;-4799.998678867885;-4776.569005496428;-21.07611393145089;8.735946721571963e-05;916.6666666666666;-916.6665793071994
0.34400000000000025;8606006743.0;8636786499.0;120236.0;-4799.998678514191;-4822.726371886171;29.941852805322924;8.842357601679396e-05;2666.6666666666665;-2666.6665782430905
0.34800000000000025;8586806747.0;8617631836.0;74904.0;-4799.998678154819;-4796.642642850995;1.1382041212509648;8.984306987258606e-05;-750.0;750.0000898430699
0.35200000000000026;8567606752.0;8598356323.0;150421.0;-4799.998677793175;-4809.568543809518;18.595125435793307;9.041082194016781e-05;-500.0;500.00009041082194
0.35600000000000026;8548406756.0;8579201660.0;105088.0;-4799.998677428125;-4804.10723124408;10.41383323052105;9.126256372837815e-05;83.33333333333333;-83.3332420707696
0.36000000000000026;8529206761.0;8559981079.0;125674.0;-4799.99867705825;-4780.31938125572;-12.13885639484306;9.24687810766045e-05;-750.0;750.0000924687811
0.36400000000000027;8510006765.0;8540859375.0;47382.0;-4799.998676685536;-4788.449213083547;-8.706544200051212;9.317841431766283e-05;2416.6666666666665;-2416.666573488252
0.36800000000000027;8490806769.0;8521754150.0;-47388.0;-4799.998676308847;-4771.793764162883;-31.048192749761256;9.41722646530252e-05;666.6666666666666;-666.666572494402
0.3720000000000003;8471606774.0;8502517090.0;-10324.0;-4799.998675930173;-4802.450054541349;1.831938002897914;9.466862138651777e-05;2000.0;-1999.9999053313786
0.3760000000000003;8452406778.0;8483345947.0;-39177.0;-4799.998675545537;-4808.462890160855;6.113593999839395;9.615905582904816e-05;-1166.6666666666667;1166.6667628257226
0.3800000000000003;8433206782.0;8464136353.0;-29578.0;-4799.998675159196;-4800.491252008092;-1.2821037718777006;9.658515409682877e-05;-1416.6666666666667;1416.6667632518208
0.3840000000000003;8414006787.0;8444976196.0;-69417.0;-4799.998674768315;-4794.3222092937385;-9.841486100820475;9.772020348464139e-05;-83.33333333333333;83.33343105353681
0.3880000000000003;8394806791.0;8425794067.0;-87284.0;-4799.998674372892;-4774.154765352793;-31.080949653663083;9.885570761980489e-05;-1416.6666666666667;1416.6667655223744
0.3920000000000003;8375606796.0;8406628418.0;-121630.0;-4799.998673975482;-4792.415585242618;-14.880889371123885;9.935251910064835e-05;1750.0;-1749.999900647481
0.3960000000000003;8356406800.0;8387407837.0;-101045.0;-4799.998673572678;-4807.669433940746;1.6080597231257343;0.00010070107236970216;-416.6666666666667;416.66676736773906
0.4000000000000003;8337206804.0;8368137817.0;-31020.0;-4799.99867316732;-4814.856935422487;12.997061604313785;0.00010133953765034676;-333.3333333333333;333.33343467287096
0.4040000000000003;8318006809.0;8348906250.0;551.0;-4799.998672759122;-4813.589084243432;13.623470829038524;0.00010204939826508053;-2166.6666666666665;2166.666768716065
0.4080000000000003;8298806813.0;8329680176.0;26629.0;-4799.998672346951;-4781.288352842693;-17.11258016516331;0.00010304279385309201;-2250.0;2250.000103042794
0.4120000000000003;8279606818.0;8310399170.0;107640.0;-4799.998671930522;-4823.063652559809;29.523379961607134;0.00010410735740151722;1416.6666666666667;-1416.6665625593093
0.4160000000000003;8260406822.0;8291228027.0;78787.0;-4799.998671509835;-4791.785322666373;-3.4861295178725413;0.00010517169357626699;-750.0;750.0001051716936
0.4200000000000003;8241206826.0;8271996460.0;110359.0;-4799.998671086876;-4807.221684655253;13.844552889035185;0.00010573967301752418;2500.0;-2499.999894260327
0.4240000000000003;8222006831.0;8252858276.0;48547.0;-4799.998670659944;-4807.1322574449;10.046406100255808;0.00010673306860553566;833.3333333333334;-833.3332266002648
0.4280000000000003;8202806835.0;8233648682.0;58145.0;-4799.9986702296055;-4791.504167249598;-5.005803670583191;0.00010758458302007057;583.3333333333334;-583.3332257487504
0.43200000000000033;8183606840.0;8214505005.0;1827.0;-4799.9986697955765;-4799.041399497029;-0.8476509948777675;0.0001085072653950192;1166.6666666666667;-1166.6665581594013
0.43600000000000033;8164406844.0;8195333862.0;-27026.0;-4799.998669358141;-4775.6819748207745;-25.938255239298087;0.00010935877980955411;-1916.6666666666667;1916.6667760254466
0.44000000000000034;8145206848.0;8176146240.0;-39399.0;-4799.998668915313;-4799.132580013446;-3.2300296112243814;0.00011070710570493247;2250.0;-2249.9998892928943
0.44400000000000034;8126006853.0;8157013550.0;-106705.0;-4799.998668472201;-4800.462691585041;-5.938277600203037;0.00011077804629167076;-250.0;250.0001107780463
0.44800000000000034;8106806857.0;8137792969.0;-86120.0;-4799.998668024263;-4814.574903845188;9.409035102994494;0.00011198449101357255;1250.0;-1249.999888015509
0.45200000000000035;8087606862.0;8118616333.0;-109479.0;-4799.998667571782;-4805.597861967184;-0.9695463300658957;0.0001131202225224115;-1416.6666666666667;1416.6667797868893
0.45600000000000035;8068406866.0;8099423218.0;-116360.0;-4799.998667115896;-4776.994626623187;-29.985641224391657;0.00011397150956327096;-2416.6666666666665;2416.666780638176
0.46000000000000035;8049206871.0;8080186157.0;-79294.0;-4799.998666657738;-4807.389076851376;2.63276945767484;0.00011453948900452815;-83.33333333333333;83.33344787282233
0.46400000000000036;8030006875.0;8060921631.0;-14764.0;-4799.998666194755;-4814.806730965644;13.92222402860898;0.0001157457063527545;-1166.6666666666667;1166.666782412373
0.46800000000000036;8010806879.0;8041690063.0;16809.0;-4799.998665728366;-4810.120895808429;11.130769331532065;0.0001165972207672894;416.6666666666667;-416.6665500694459
0.47200000000000036;7991606884.0;8022491455.0;15421.0;-4799.998665259706;-4810.294374521144;11.220968508572696;0.00011716497283487115;-416.6666666666667;416.6667838316395
0.47600000000000037;7972406888.0;8003281860.0;25020.0;-4799.998664787356;-4784.22102549379;-14.27644005149341;0.00011808765520981979;-250.0;250.0001180876552
0.48000000000000037;7953206893.0;7983978882.0;128003.0;-4799.998664310463;-4825.101222192589;32.78273711735801;0.00011922315934498329;500.0;-499.99988077684066
