Zeit[sec];Sollposition[°];Istposition[°];Positionsschleppfehler[°];Sollgeschwindigkeit[°/s];Istgeschwindigkeit[°/s];Geschwindigkeitsdifferenz[°/s];Sollbeschleunigung[°/s*s];Istbeschleunigung[°/s*s];Beschleunigungsdifferenz[°/s*s]
0.0;0.0;0.0;0.0;-0.0;0.020575104995217985;-0.020575104995217985;0.0;0.0;0.0
0.004;0.0;10986.0;-10986.0;-0.0;5.183845117323863;-6.238501117323864;0.0;0.0;0.0
0.008;0.0;0.0;0.0;-0.0;-0.6442567113396148;0.6442567113396148;0.0;0.0;0.0
0.012;0.0;0.0;0.0;-0.0;-0.41756940440048057;0.41756940440048057;0.0;0.0;0.0
0.016;0.0;0.0;0.0;-0.0;-0.1466159744930173;0.1466159744930173;0.0;0.0;0.0
0.02;0.0;0.0;0.0;-0.0;-1.58932504811969;1.58932504811969;0.0;0.0;0.0
0.024;0.0;-5493.0;5493.0;-0.0;-2.940477829264303;3.467805829264303;0.0;0.0;0.0
0.028;0.0;5493.0;-5493.0;-0.0;3.127808624114375;-3.655136624114375;0.0;0.0;0.0
0.032;0.0;-5493.0;5493.0;-0.0;-4.910709588268862;5.438037588268862;0.0;83.33333333333333;-83.33333333333333
0.036000000000000004;0.0;0.0;0.0;-0.0;-0.8591820145597767;0.8591820145597767;0.0;0.0;0.0
0.04000000000000001;-347.0;-5493.0;5493.0;-0.08693462996944115;-3.5924151992677515;4.119743199267751;-21.733657492360287;0.0;-21.733657492360287
0.04400000000000001;-3813.0;5493.0;-5631.0;-0.8663620838445821;2.6919577167281137;-3.267001939157404;-194.85686346878524;-83.33333333333333;-111.52353013545192
0.048000000000000015;-88559.0;0.0;-1719.0;-21.186589062683606;-0.6719097176947173;0.11142966341522675;-5080.056744709756;0.0;-5080.056744709756
0.05200000000000002;-271178.0;0.0;-37393.0;-45.654720278340086;1.3404535926546268;-13.848629212324784;-6117.03280391412;0.0;-6117.03280391412
0.05600000000000002;-645679.0;-27466.0;-133002.0;-93.62526622567238;-4.14674059962418;-39.39020834556285;-11992.636486833073;-250.0;-11742.636486833073
0.060000000000000026;-1253691.0;-71411.0;-347181.0;-152.0030535645618;-17.261596768170374;-80.59870348216478;-14594.44683472236;-333.3333333333333;-14261.113501389025
0.06400000000000003;-2081973.0;-186768.0;-697784.0;-207.07043960415507;-33.56840001102773;-149.90893332392696;-13766.846509898314;-1666.6666666666667;-12100.179843231648
0.06800000000000003;-3191383.0;-692139.0;-886390.0;-277.3524421770923;-141.2413368857466;-117.34645746791824;-17570.50064323431;-5416.666666666667;-12153.833976567645
0.07200000000000004;-4696380.0;-1631470.0;-885514.0;-376.2492128834396;-228.494165271699;-91.12867373125971;-24724.192676586823;-15833.333333333334;-8890.85934325349
0.07600000000000004;-6716298.0;-2675171.0;-1106419.0;-504.9794943802357;-268.65983495469595;-153.70804693659505;-32182.57037419902;-18666.666666666668;-13515.903707532349
0.08000000000000004;-9346599.0;-4174805.0;-1313623.0;-657.5752050016769;-386.6057267839285;-166.21136603648472;-38148.9276553603;-20333.333333333332;-17815.594322026966
0.08400000000000005;-12664931.0;-6262207.0;-1485129.0;-829.5830757011948;-526.8974268384501;-180.4019875020632;-43001.967674879495;-21500.0;-21501.967674879495
0.08800000000000005;-16738160.0;-8904419.0;-1742435.0;-1018.3070573568986;-669.5117663977658;-222.64151622136785;-47180.99541392593;-29000.0;-18180.995413925928
0.09200000000000005;-21619134.0;-12260742.0;-1999717.0;-1220.2435203632926;-853.9504149409377;-241.42374405715032;-50484.115751598525;-36166.666666666664;-14317.449084931859
0.09600000000000006;-27345227.0;-16452026.0;-2197497.0;-1431.5231024767124;-1056.2097174247324;-252.01589967695304;-52819.89552835495;-41333.333333333336;-11486.562195021612
0.10000000000000006;-33942732.0;-21456299.0;-2404542.0;-1649.3762563848795;-1264.1707336721656;-269.4946502926996;-54463.28847704177;-46416.666666666664;-8046.621810375107
0.10400000000000006;-41429791.0;-27482300.0;-2445183.0;-1871.7646012646521;-1524.2722837181464;-227.12579202617871;-55597.08621994315;-52500.0;-3097.086219943151
0.10800000000000007;-49817260.0;-34530029.0;-2342548.0;-2096.867113474447;-1762.2533240465552;-198.90456094158412;-56275.628052448665;-58333.333333333336;2057.705280884669
0.11200000000000007;-59107772.0;-42346802.0;-2364620.0;-2322.6280386653125;-1982.173730605822;-204.54096281498119;-56440.231297716426;-58333.333333333336;1893.1020356169129
0.11600000000000008;-69293385.0;-51300659.0;-2150998.0;-2546.4029664649725;-2247.3445261884467;-144.21011457724217;-55943.73194991499;-60833.333333333336;4889.601383418345
0.12000000000000008;-80357138.0;-60853271.0;-2238501.0;-2765.9382055194783;-2412.638494659304;-212.2860844742877;-54883.80976362646;-55583.333333333336;699.5235697068765
0.12400000000000008;-92273067.0;-71323242.0;-2297067.0;-2978.982155411465;-2626.0768406573384;-226.57566863705915;-53260.987472996705;-55083.333333333336;1822.3458603366325
0.12800000000000009;-104999413.0;-82705078.0;-2311713.0;-3181.5862792928006;-2856.840170460268;-214.20474108833105;-50651.030970333864;-52166.666666666664;1515.6356963328008
0.1320000000000001;-118477425.0;-94916382.0;-2332662.0;-3369.5029869003206;-3077.1745934558926;-204.82417899118764;-46979.17690188001;-52666.666666666664;5687.489764786655
0.1360000000000001;-132637485.0;-108023071.0;-2245595.0;-3540.014773751213;-3274.939219054463;-195.5430850677949;-42627.94671272309;-55916.666666666664;13288.719953943577
0.1400000000000001;-147402104.0;-121876831.0;-2135864.0;-3691.1546216700303;-3467.9370642968097;-173.11305138458056;-37784.96197970435;-53166.666666666664;15381.704686962315
0.1440000000000001;-162685841.0;-136499634.0;-1908823.0;-3820.9339975252074;-3656.2725631855546;-125.91471420426478;-32444.843963794257;-51166.666666666664;18721.822702872407
0.1480000000000001;-178398440.0;-151457520.0;-1917835.0;-3928.1494770842023;-3732.859952690829;-192.9767386566309;-26803.86988974874;-44083.333333333336;17279.463443584595
0.1520000000000001;-194451316.0;-166854858.0;-1971230.0;-4013.2187973133905;-3865.784688407174;-186.1362254909045;-21267.330057297044;-34250.0;12982.669942702956
0.1560000000000001;-210760251.0;-182647705.0;-2023383.0;-4077.2336490801263;-3940.5644868128743;-214.93019883352872;-16003.712941683943;-29583.333333333332;13579.620391649389
0.16000000000000011;-227248596.0;-198775635.0;-2047859.0;-4122.086140311981;-4048.4948796555464;-186.20081710307932;-11213.1228079636;-22250.0;11036.8771920364
0.16400000000000012;-243855943.0;-215310059.0;-1892003.0;-4151.836364659673;-4116.8621411298345;-159.41202088147293;-7437.556086922996;-26750.0;19312.443913077004
0.16800000000000012;-260539799.0;-231860962.0;-1875576.0;-4170.963952245197;-4156.633041690278;-157.04108616249687;-4781.896896381113;-17083.333333333332;12301.436436952219
0.17200000000000013;-277269084.0;-248686523.0;-1686999.0;-4182.321063705138;-4190.4165836696775;-130.78115687831087;-2839.277864985206;-17666.666666666668;14827.388801681462
0.17600000000000013;-294020723.0;-265369263.0;-1705679.0;-4187.909420544555;-4180.409329122627;-158.69064865305882;-1397.0892098543573;-6416.666666666667;5019.57745681231
0.18000000000000013;-310779595.0;-282310181.0;-1502643.0;-4189.7179668627705;-4218.448546562913;-110.27539573601825;-452.1365795537804;-7583.333333333333;7131.196753779553
0.18400000000000014;-327537744.0;-299091797.0;-1475403.0;-4189.53691846582;-4196.9342574273;-133.29816719553492;45.262099237561415;-1750.0;1795.2620992375614
0.18800000000000014;-344292405.0;-315917358.0;-1408385.0;-4188.665072820412;-4197.161947886622;-127.67859916455927;217.96141135200742;-2166.6666666666665;2384.628078018674
0.19200000000000014;-361043736.0;-332687988.0;-1394525.0;-4187.832583727829;-4192.9347269491;-130.13197917135676;208.12227314581833;1583.3333333333333;-1375.211060187515
0.19600000000000015;-377792971.0;-349497070.0;-1338804.0;-4187.3085856402295;-4194.507049129112;-122.35824724431768;130.99952189986652;666.6666666666666;-535.6671447668001
0.20000000000000015;-394541323.0;-366306152.0;-1280242.0;-4187.087772219769;-4201.173768832491;-109.35916770684435;55.203355115054364;666.6666666666666;-611.4633115516123
0.20400000000000015;-411289559.0;-383043823.0;-1291467.0;-4187.058650857943;-4169.0682868497015;-142.13665202080938;7.2803404566457175;-833.3333333333334;840.6136737899791
0.20800000000000016;-428037993.0;-399918823.0;-1164779.0;-4187.108488670206;-4223.800014286346;-75.09628959711426;-12.459453065730486;1250.0;-1262.4594530657305
0.21200000000000016;-444786656.0;-416799316.0;-1032601.0;-4187.165513754151;-4210.71615462851;-75.49212277625611;-14.256270986379604;-2666.6666666666665;2652.410395680287
0.21600000000000016;-461535459.0;-433641357.0;-939084.0;-4187.20051083432;-4201.366936160277;-75.91593404626929;-8.749270042244461;-1000.0;991.2507299577555
0.22000000000000017;-478284306.0;-450384521.0;-944637.0;-4187.211579637646;-4183.590896046389;-94.27331137186957;-2.7672008313857077;-666.6666666666666;663.8994658352809
0.22400000000000017;-495033138.0;-467396851.0;-681127.0;-4187.207888889042;-4245.310626201373;-7.282260179491459;0.9226871509326884;1000.0;-999.0773128490673
0.22800000000000017;-511781936.0;-484260864.0;-565954.0;-4187.199156234824;-4201.366349280743;-40.17528617648168;2.1831635544913297;-2416.6666666666665;2418.849830221158
0.23200000000000018;-528530702.0;-501256714.0;-318923.0;-4187.191380266251;-4233.786436995089;15.965380841524166;1.9439921431967377;-2833.3333333333335;2835.27732547653
0.23600000000000018;-545279450.0;-517911987.0;-412436.0;-4187.186658526243;-4157.395591365275;-69.39438898741082;1.1804350019701815;833.3333333333334;-832.1528983313632
0.24000000000000019;-562028189.0;-534660645.0;-412537.0;-4187.184671750461;-4182.484883399466;-44.3082223329593;0.4966939454789099;6416.666666666667;-6416.169972721188
0.2440000000000002;-578776927.0;-551321411.0;-500515.0;-4187.184238052184;-4159.0213576255555;-76.21398084157772;0.10842456936188682;4000.0;-3999.891575430638
0.2480000000000002;-595525665.0;-568179932.0;-390733.0;-4187.184280965734;-4211.243435716129;-13.451443720990937;-0.010728387451308663;2000.0;-2000.0107283874513
0.25200000000000017;-612274402.0;-584912109.0;-407294.0;-4187.184181377669;-4185.148851354288;-41.135630253626914;0.024897016146496753;-2916.6666666666665;2916.691563682813
0.25600000000000017;-629023138.0;-601710205.0;-357935.0;-4187.183743191302;-4202.385520084741;-19.160481144436744;0.10954659182971227;-416.6666666666667;416.7762132584964
0.2600000000000002;-645771871.0;-618338013.0;-478864.0;-4187.18301615583;-4160.43223043071;-72.72272179644187;0.18175886793869722;166.66666666666666;-166.48490779872796
0.2640000000000002;-662520600.0;-635295410.0;-270202.0;-4187.182129595889;-4239.208126929848;26.08527742924798;0.22163998528412776;750.0;-749.7783600147159
0.2680000000000002;-679269326.0;-652022095.0;-292248.0;-4187.1811948121085;-4178.268063938116;-36.9704129705251;0.2336959450985887;-2750.0;2750.2336959450986
0.2720000000000002;-696018048.0;-668858643.0;-204428.0;-4187.180272841495;-4214.904961774683;8.098109611268228;0.2304926533724938;-250.0;250.2304926533725
0.2760000000000002;-712766766.0;-685524902.0;-286893.0;-4187.179380955483;-4173.215365466552;-41.50719727584874;0.22297150303529634;83.33333333333333;-83.11036183029803
0.2800000000000002;-729515481.0;-702246094.0;-314422.0;-4187.178512203077;-4190.626643703457;-26.737792921334403;0.21718810148740886;4250.0;-4249.782811898513
0.2840000000000002;-746264192.0;-718978271.0;-330962.0;-4187.17765263003;-4186.577902101854;-32.37349163277668;0.2148932617274113;-166.66666666666666;166.88155992839407
0.2880000000000002;-763012900.0;-735617065.0;-440881.0;-4187.176790896397;-4170.095121783277;-59.40763070285993;0.2154334083570575;2083.3333333333335;-2083.1178999249764
0.2920000000000002;-779761605.0;-752387695.0;-418961.0;-4187.17592112116;-4209.325538075572;-18.072033927094708;0.21744380910604377;-166.66666666666666;166.8841104757727
0.2960000000000002;-796510306.0;-769295654.0;-259709.0;-4187.175041906633;-4226.001350316472;13.892835223145084;0.21980363180773566;-2916.6666666666665;2916.8864702984743
0.3000000000000002;-813259003.0;-786005859.0;-298207.0;-4187.174154207617;-4197.119115779849;-18.684333842819797;0.22192475398696843;-2083.3333333333335;2083.5552580873205
0.3040000000000002;-830007697.0;-802803955.0;-248811.0;-4187.173259563733;-4208.652899476605;-2.4076516228769833;0.22366097095982695;-1750.0;1750.2236609709598
0.3080000000000002;-846756387.0;-819552612.0;-248850.0;-4187.172359162955;-4211.103825910131;0.04042121348447836;0.2251001944841846;3000.0;-2999.774899805516
0.3120000000000002;-863505074.0;-836449585.0;-100569.0;-4187.17145360235;-4226.366130844952;29.53859903401917;0.22639015128333995;-1916.6666666666667;1916.89305681795
0.3160000000000002;-880253757.0;-853319092.0;20249.0;-4187.170543019358;-4224.427304158654;39.199202760554726;0.22764574805478333;-2166.6666666666665;2166.8943124147213
0.32000000000000023;-897002436.0;-870045776.0;-1752.0;-4187.169627325095;-4173.132069462749;-14.207220413692994;0.2289235658281541;-2083.3333333333335;2083.5622568991616
0.32400000000000023;-913751112.0;-886706543.0;-89667.0;-4187.168706383501;-4183.8883236878;-11.889893608532475;0.2302353984759975;5000.0;-4999.769764601524
0.32800000000000024;-930499784.0;-903482666.0;-62222.0;-4187.167780103556;-4180.274082613766;-12.86849693775821;0.2315699862265319;1666.6666666666667;-1666.4350966804402
0.33200000000000024;-947248452.0;-920148926.0;-144636.0;-4187.166848457935;-4188.120928074031;-12.932472450085697;0.23291140519177134;4000.0;-3999.7670885948082
0.33600000000000024;-963997116.0;-937040405.0;-1827.0;-4187.165911465483;-4208.590384518479;21.24757637042876;0.23424811297445558;-4666.666666666667;4666.900914779641
0.34000000000000025;-980745777.0;-953673706.0;-117193.0;-4187.164969167723;-4160.634016573072;-37.78299384085403;0.23557444001198746;1083.3333333333333;-1083.0977588933213
0.34400000000000025;-997494434.0;-970416870.0;-122692.0;-4187.1640216096275;-4179.069362986632;-19.874612362696098;0.23688952387601603;-1083.3333333333333;1083.5702228572093
0.34800000000000025;-1014243087.0;-987121582.0;-166639.0;-4187.163068830239;-4184.5513566988375;-18.610586298177623;0.23819484704290517;3333.3333333333335;-3333.0951384862906
0.35200000000000026;-1030991736.0;-1003919678.0;-117199.0;-4187.162110862976;-4183.981256675021;-14.433496724559518;0.2394918158188375;-1416.6666666666667;1416.9061584824856
0.35600000000000026;-1047740381.0;-1020717773.0;-67755.0;-4187.161147736293;-4199.9923744823145;6.325199888418865;0.24078167075458623;-1333.3333333333333;1333.5741150040878
0.36000000000000026;-1064489023.0;-1037384033.0;-150142.0;-4187.160179476259;-4151.870932631091;-49.70443398028601;0.24206500847867574;-1833.3333333333333;1833.575398341812
0.36400000000000027;-1081237661.0;-1054039307.0;-243512.0;-4187.159206109823;-4167.462041786955;-43.075879692682065;0.24334160912076186;4083.3333333333335;-4083.0899917242127
0.36800000000000027;-1097986294.0;-1070837402.0;-194058.0;-4187.158227664182;-4179.491553165583;-26.297814059481425;0.24461141015308385;-83.33333333333333;83.57794474348641
0.3720000000000003;-1114734924.0;-1087470703.0;-309393.0;-4187.157244167228;-4149.558783384378;-67.3017684903707;0.2458742385442747;1416.6666666666667;-1416.4207924281225
0.3760000000000003;-1131483550.0;-1104191895.0;-336833.0;-4187.156255647981;-4168.241047437738;-51.25276401834981;0.24712981166885584;-1333.3333333333333;1333.580463145002
0.3800000000000003;-1148232172.0;-1121083374.0;-193982.0;-4187.155262135527;-4211.331444740454;5.552314742992166;0.24837811361066997;-750.0;750.2483781136107
0.3840000000000003;-1164980790.0;-1137815552.0;-210428.0;-4187.154263659009;-4171.735775088469;-35.62118043943792;0.24961912936305453;-2500.0;2500.249619129363
0.3880000000000003;-1181729403.0;-1154635620.0;-138981.0;-4187.153260247923;-4188.64676282258;-11.850285253944094;0.25085277161451813;-2166.6666666666665;2166.917519438281
0.3920000000000003;-1198478013.0;-1171318359.0;-204858.0;-4187.152251931726;-4165.767843521028;-41.05239615161372;0.25207904923263413;1333.3333333333333;-1333.0812542841006
0.3960000000000003;-1215226619.0;-1188308716.0;36887.0;-4187.151238740259;-4238.907909753947;55.29619540828298;0.25329786672045884;166.66666666666666;-166.4133687999462
0.4000000000000003;-1231975221.0;-1205178223.0;157786.0;-4187.1502207022895;-4205.448002201023;33.44360207575755;0.2545094923789293;-4000.0;4000.254509492379
0.4040000000000003;-1248723818.0;-1222020264.0;251222.0;-4187.149197848408;-4199.9506483407495;36.91711929997291;0.2557134703238262;-2083.3333333333335;2083.5890468036573
0.4080000000000003;-1265472412.0;-1238697510.0;179868.0;-4187.148170208455;-4164.000990815093;-5.881502306665425;0.2569099883658055;1250.0;-1249.7430900116342
0.4120000000000003;-1282221001.0;-1255484619.0;218381.0;-4187.147137812581;-4192.793261809726;26.609041411225917;0.25809896851569647;5333.333333333333;-5333.075234364817
0.4160000000000003;-1298969586.0;-1272079468.0;64638.0;-4187.146100691124;-4153.381604129038;-27.56091477190057;0.2592803641618957;3250.0;-3249.740719635838
0.4200000000000003;-1315718167.0;-1288981934.0;218517.0;-4187.14505887449;-4222.670856438145;56.50175577884329;0.2604541584787512;333.3333333333333;-333.07287917485456
0.4240000000000003;-1332466744.0;-1305609741.0;97741.0;-4187.144012393395;-4155.30863794872;-22.453919755289462;0.26162027370446594;-1750.0;1750.2616202737045
0.4280000000000003;-1349215317.0;-1322391357.0;130777.0;-4187.142961278241;-4203.233416692106;28.643358626636655;0.26277878851033165;583.3333333333334;-583.070554544823
0.43200000000000033;-1365963885.0;-1338980713.0;-28442.0;-4187.141905559997;-4153.933473060947;-35.94056071342311;0.26392956101517484;750.0;-749.7360704389848
0.43600000000000033;-1382712449.0;-1355811768.0;54042.0;-4187.140845270008;-4209.248825675088;27.294308813774478;0.26507249731366755;2166.6666666666665;-2166.401594169353
0.44000000000000034;-1399461009.0;-1372620850.0;114557.0;-4187.13978043943;-4195.663100500365;19.519081142942923;0.2662076444721606;-4083.3333333333335;4083.5995409778056
0.44400000000000034;-1416209565.0;-1389276123.0;21268.0;-4187.138711098982;-4168.137898822315;-16.96080247163445;0.26733511208476557;0.0;0.26733511208476557
0.44800000000000034;-1432958116.0;-1405859985.0;-143429.0;-4187.137637281137;-4162.294195265948;-38.614351435929166;0.26845446109291515;2083.3333333333335;-2083.0648788722406
0.45200000000000035;-1449706663.0;-1422674561.0;-77407.0;-4187.136559016363;-4211.027112739824;16.457749127172065;0.26956619353768474;3083.3333333333335;-3083.063767139796
0.45600000000000035;-1466455206.0;-1439335327.0;-165190.0;-4187.135476336947;-4179.704978899397;-23.290477158480826;0.2706698539896024;-750.0;750.2706698539896
0.46000000000000035;-1483203744.0;-1456045532.0;-203531.0;-4187.134389274862;-4185.947470051306;-20.7276420175549;0.27176552134733356;-1750.0;1750.2717655213473
0.46400000000000036;-1499952278.0;-1472805176.0;-192428.0;-4187.133297861956;-4201.96736700627;-3.6407726713669035;0.27285322653369803;-500.0;500.2728532265337
0.46800000000000036;-1516700808.0;-1489707642.0;-38498.0;-4187.132202130264;-4230.399790733167;39.57001981694884;0.27393292293709237;-2166.6666666666665;2166.9405995896036
0.47200000000000036;-1533449333.0;-1506439819.0;-54853.0;-4187.131102112703;-4193.5775196514305;1.1787618349781042;0.27500439023242507;-2916.6666666666665;2916.941671056899
0.47600000000000037;-1550197854.0;-1523155518.0;-87683.0;-4187.129997840618;-4182.249820540884;-13.299519869886353;0.2760680213214073;0.0;0.2760680213214073
0.48000000000000037;-1566946370.0;-1540036011.0;44287.0;-4187.128889346986;-4230.600174749267;47.72105601776184;0.27712340784091793;1583.3333333333333;-1583.0562099254923
0.4840000000000004;-1583694882.0;-1556911011.0;170768.0;-4187.12777666485;-4209.132803481288;38.39696667071894;0.2781705341021734;-2416.6666666666665;2416.9448372007687
0.4880000000000004;-1600443390.0;-1573736572.0;247815.0;-4187.126659826622;-4214.3064769987395;50.96826231779323;0.27920955699300976;-1583.3333333333333;1583.6125428903263
