Zeit[sec];Sollposition[°];Istposition[°];Positionsschleppfehler[°];Sollgeschwindigkeit[°/s];Istgeschwindigkeit[°/s];Geschwindigkeitsdifferenz[°/s];Sollbeschleunigung[°/s*s];Istbeschleunigung[°/s*s];Beschleunigungsdifferenz[°/s*s]
0.0;-9979199999.0;-9979189453.0;-10546.0;0.0;5.596362721607089;-6.229122721529325;0.0;0.0;0.0
0.004;-9979199999.0;-9979194946.0;-5053.0;0.0;4.870268690079451;-5.173448690132066;0.0;0.0;0.0
0.008;-9979199999.0;-9979205933.0;5934.0;0.0;-2.564256901964545;2.920296901981108;0.0;83.33333333333333;-83.33333333333333
0.012;-9979199999.0;-9979194946.0;-5053.0;0.0;0.6801202688887715;-0.9833002689413863;0.0;0.0;0.0
0.016;-9979199999.0;-9979200439.0;440.0;0.0;-1.4058260615691542;1.432226061593909;0.0;0.0;0.0
0.02;-9979199999.0;-9979205933.0;5934.0;0.0;-2.7200368969514965;3.0760768969680594;0.0;-83.33333333333333;83.33333333333333
0.024;-9979199999.0;-9979200439.0;440.0;0.0;-0.09244964284449816;0.11884964286925294;0.0;0.0;0.0
0.028;-9979199999.0;-9979205933.0;5934.0;0.0;-2.6955935536548497;3.0516335536714125;0.0;0.0;0.0
0.032;-9979199999.0;-9979211426.0;11427.0;0.0;-4.6065064535737035;5.292126453529137;0.0;0.0;0.0
0.036000000000000004;-9979199469.0;-9979194946.0;-5053.0;0.13256756575879813;1.543430211611092;-1.8466102116637069;33.141891439699535;0.0;33.141891439699535
0.04000000000000001;-9979194185.0;-9979194946.0;-4842.0;1.3211249925715973;2.105519915834069;-2.3434789474801003;297.1393567031998;0.0;297.1393567031998
0.04400000000000001;-9979032258.0;-9979194946.0;-2430.0;40.48165397278625;3.1700423177182677;-2.7128070664916395;9790.132245053663;0.0;9790.132245053663
0.048000000000000015;-9978736866.0;-9979189453.0;59440.0;73.84805233326531;3.1797930243760346;17.227305621970558;8341.599590119768;83.33333333333333;8258.266256786434
0.05200000000000002;-9978187521.0;-9979161987.0;245899.0;137.33632048965868;7.24520956812799;60.990183780133904;15872.06703909834;333.3333333333333;15538.733705765007
0.05600000000000002;-9977347933.0;-9979030151.0;509362.0;209.89694029394974;33.08570956454426;96.30066284822863;18140.154951072767;1583.3333333333333;16556.82161773943
0.060000000000000026;-9976161613.0;-9978700562.0;842707.0;296.5798072899514;88.45238071005046;127.84351020105164;21670.71674900042;4333.333333333333;17337.383415667086
0.06400000000000003;-9974483675.0;-9977700806.0;818312.0;419.4846215887101;266.2080968316421;26.73080592473383;30726.203574689676;12583.333333333334;18142.870241356344
0.06800000000000003;-9972149316.0;-9976168213.0;664926.0;583.5895917567561;371.78569041839245;12.911607929411275;41026.2425420115;26416.666666666668;14609.575875344834
0.07200000000000004;-9969014749.0;-9974448853.0;880884.0;783.6419262013036;437.6352636922076;99.04730903160322;50013.08361113686;29000.0;21013.083611136863
0.07600000000000004;-9964960366.0;-9972081299.0;1161113.0;1013.5956543747233;614.391197889097;117.22124609764853;57488.43204335492;28583.333333333332;28905.098710021586
0.08000000000000004;-9959874951.0;-9968801880.0;1376265.0;1271.3536623256803;831.0468077283576;125.17189701964617;64439.50198773925;31416.666666666668;33022.83532107258
0.08400000000000005;-9953656313.0;-9964747925.0;1780091.0;1554.6593934127907;1027.9857041513621;193.26504778105482;70826.4327717776;43166.666666666664;27659.76610511094
0.08800000000000005;-9946228556.0;-9959523926.0;2084771.0;1856.9392078946391;1326.6018523996397;180.65406482224148;75569.95362046211;54666.666666666664;20903.28695379545
0.09200000000000005;-9937536428.0;-9952998047.0;2250287.0;2173.031785740156;1645.2105725369902;162.65526967774622;79023.14446137921;63583.333333333336;15439.811128045882
0.09600000000000006;-9927550400.0;-9945340576.0;2514791.0;2496.506986151919;1936.753428450212;194.6278368256642;80868.80010294078;71250.0;9618.800102940782
0.10000000000000006;-9916284495.0;-9936326294.0;2698241.0;2816.4761707555913;2273.706238701202;187.62076475383492;79992.29615091803;77666.66666666667;2325.6294842513653
0.10400000000000006;-9903782690.0;-9926010132.0;2867976.0;3125.4509394039874;2589.741271653846;203.81169417242427;77243.69216209902;79416.66666666667;-2172.974504567648
0.10800000000000007;-9890106788.0;-9914238281.0;2844546.0;3418.9754534313056;2953.017242863409;154.76053648952757;73381.12850682955;82250.0;-8868.871493170445
0.11200000000000007;-9875343408.0;-9901384277.0;2950617.0;3690.8446623704167;3233.8910979897382;183.16434587047343;67967.30223477777;83000.0;-15032.697765222223
0.11600000000000008;-9859602293.0;-9887305298.0;2971828.0;3935.2786364260837;3539.566420250006;163.79073636991234;61108.49351391676;78500.0;-17391.506486083243
0.12000000000000008;-9843008324.0;-9872001343.0;2812538.0;4148.492163123377;3826.2853091361226;128.63290102048404;53303.38167432342;77333.33333333333;-24029.95165900991
0.12400000000000008;-9825696580.0;-9855900879.0;2785603.0;4327.935696840052;4043.6539377589747;141.86448022455852;44860.88342916855;70083.33333333333;-25222.449904164776
0.12800000000000009;-9807809992.0;-9838855591.0;2613873.0;4471.646861514708;4259.759707487226;115.46209494154209;35927.791168664044;65333.333333333336;-29405.542164669292
0.1320000000000001;-9789482178.0;-9821206055.0;2499793.0;4581.953229952281;4428.326222947285;105.5248582439317;27576.592109393234;53916.666666666664;-26340.07455727343
0.1360000000000001;-9770819111.0;-9802946777.0;2298674.0;4665.766450580935;4577.950952498913;74.50904295881082;20953.30515716364;47250.0;-26296.69484283636
0.1400000000000001;-9751912202.0;-9784198608.0;2008656.0;4726.727169620185;4696.4775392003585;38.5793567721621;15240.179759812463;39666.666666666664;-24426.486906854203
0.1440000000000001;-9732846712.0;-9765258179.0;1826009.0;4766.37212010218;4729.458987760649;69.54688231852015;9911.237620498696;32250.0;-22338.762379501306
0.1480000000000001;-9713689685.0;-9745999146.0;1535331.0;4789.256514186401;4814.063504861973;20.14493645884704;5721.098521055183;23500.0;-17778.90147894482
0.1520000000000001;-9694487359.0;-9726767578.0;1404617.0;4800.581335204891;4802.736765998803;56.75338415743681;2831.205254622546;15750.0;-12918.794745377454
0.1560000000000001;-9675269414.0;-9707365723.0;1177213.0;4804.4860627233475;4845.074315225437;19.171005297883312;976.1818796141597;8416.666666666666;-7440.484787052506
0.16000000000000011;-9656051782.0;-9687991333.0;1011076.0;4804.407886568964;4851.1316656143745;11.59603666698058;-19.544038595768143;6083.333333333333;-6102.877371929101
0.16400000000000012;-9636840339.0;-9668644409.0;881881.0;4802.860507891571;4828.961838029191;28.38320980763274;-386.8446693484202;2083.3333333333335;-2470.1780026817537
0.16800000000000012;-9617635159.0;-9649220581.0;673234.0;4801.29474956806;4857.264051940404;-13.07517877583632;-391.43958087765895;1166.6666666666667;-1558.1062475443257
0.17200000000000013;-9598434053.0;-9629879150.0;540799.0;4800.276215592282;4825.621197412372;9.07551844084901;-254.6334939445387;916.6666666666666;-1171.3001606112052
0.17600000000000013;-9579234740.0;-9610548706.0;413956.0;4799.827928920918;4827.020034944125;-1.2825838177495825;-112.07166784106448;-1333.3333333333333;1221.2616654922688
0.18000000000000013;-9560035731.0;-9591339111.0;404780.0;4799.752044077228;4812.34018439275;12.051060511368632;-18.971210922472892;-2166.6666666666665;2147.6954557441936
0.18400000000000014;-9540836384.0;-9571997681.0;262553.0;4799.836584436596;4831.7815519733285;-16.22790352742777;21.13508984211876;-2916.6666666666665;2937.8017565087853
0.18800000000000014;-9521636613.0;-9552777100.0;241117.0;4799.942421157541;4807.991732181489;6.261295464943942;26.459180236088287;-1000.0;1026.4591802360883
0.19200000000000014;-9502436571.0;-9533551025.0;214555.0;4800.010474587264;4800.605739553153;12.145612136020645;17.01335743086929;-83.33333333333333;100.34669076420262
0.19600000000000015;-9483236432.0;-9514127197.0;-9397.0;4800.034500065464;4853.6911546691135;-54.28619152709689;6.0063695500502945;333.3333333333333;-327.326963783283
0.20000000000000015;-9464036309.0;-9494780273.0;-156242.0;4800.030501837799;4839.044254500397;-48.39917293699091;-0.9995569162128959;2833.3333333333335;-2834.3328902495464
0.20400000000000015;-9444836242.0;-9475504761.0;-231622.0;4800.016426982612;4813.534124801897;-27.398670745527852;-3.5187137968932802;1583.3333333333333;-1586.8520471302265
0.20800000000000016;-9425636227.0;-9456470947.0;-65335.0;4800.0036460220235;4773.830099979467;22.27474482526668;-3.195240147078948;-4083.3333333333335;4080.1380931862545
0.21200000000000016;-9406436240.0;-9437261353.0;-74883.0;4799.996304755126;4796.358267170951;-0.8398051695321556;-1.8353167242821655;-5333.333333333333;5331.498016609051
0.21600000000000016;-9387236264.0;-9418057251.0;-78980.0;4799.993977545451;4792.979088083774;2.2829221290612622;-0.5818024187647097;-2250.0;2249.4181975812353
0.22000000000000017;-9368036285.0;-9399001465.0;65216.0;4799.994552625395;4761.204754521974;42.703630546203385;0.14376998592524615;750.0;-749.8562300140748
0.22400000000000017;-9348836299.0;-9379896240.0;159969.0;4799.996059287591;4772.333489699416;37.25886949231881;0.37666554908355465;-1666.6666666666667;1667.0433322157503
0.22800000000000017;-9329636309.0;-9360922852.0;386563.0;4799.99734869049;4762.514521549329;60.67440507445008;0.32235072467301507;-4333.333333333333;4333.655684058006
0.23200000000000018;-9310436316.0;-9341878052.0;541750.0;4799.998047115186;4760.582326903694;71.9192347838416;0.1746061739140714;-2333.3333333333335;2333.5079395072476
0.23600000000000018;-9291236322.0;-9322750854.0;614543.0;4799.998235591184;4792.4044134752;44.46578457464966;0.04711899964604527;-250.0;250.04711899964605
0.24000000000000019;-9272036329.0;-9303667603.0;731286.0;4799.99814490511;4767.667977206603;76.20730054408796;-0.022671518536299118;2916.6666666666665;-2916.689338185203
0.2440000000000002;-9252836336.0;-9284430542.0;694218.0;4799.997975594221;4808.799601119474;32.8516774117561;-0.04232772221257619;2416.6666666666665;-2416.708994388879
0.2480000000000002;-9233636344.0;-9265314331.0;778000.0;4799.997838001658;4787.270777795359;59.40730051200262;-0.03439814076955372;2583.3333333333335;-2583.367731474103
0.25200000000000017;-9214436352.0;-9246022339.0;686001.0;4799.997763558362;4813.988725725778;27.169256307311116;-0.018610824099596357;1500.0;-1500.0186108240996
0.25600000000000017;-9195236360.0;-9226735840.0;599494.0;4799.997740049284;4832.675632747985;3.2918165442397367;-0.005877269359189086;2166.6666666666665;-2166.6725439360257
0.2600000000000002;-9176036368.0;-9207405396.0;469042.0;4799.997742690291;4817.448623302266;10.69165137134496;0.0006602515441045398;3833.3333333333335;-3833.3326730817894
0.2640000000000002;-9156836376.0;-9188102417.0;366055.0;4799.997751380535;4824.402125668459;-2.441084434288314;0.0021725611532019684;1333.3333333333333;-1333.33116077218
0.2680000000000002;-9137636384.0;-9168821411.0;285041.0;4799.997755756532;4824.353374350489;-7.253168230039591;0.0010939991170744179;1000.0;-999.9989060008829
0.2720000000000002;-9118436392.0;-9149397583.0;61205.0;4799.997753370307;4856.989746578716;-53.319693514010396;-0.00059655621953425;-500.0;499.99940344378047
0.2760000000000002;-9099236400.0;-9130078125.0;-58261.0;4799.997745895968;4843.342601019971;-46.840506235150315;-0.0018685846043808851;1416.6666666666667;-1416.6685352512711
0.2800000000000002;-9080036408.0;-9110813599.0;-122795.0;4799.997735991837;4807.64026616922;-15.010215748424343;-0.0024760329324635677;833.3333333333334;-833.3358093662658
0.2840000000000002;-9060836416.0;-9091549072.0;-187330.0;4799.9977256678785;4821.875035382539;-33.117093369553004;-0.0025809895305428654;-2416.6666666666665;2416.664085677136
0.2880000000000002;-9041636425.0;-9072306519.0;-229891.0;4799.997715891858;4807.092014274545;-20.88774231802836;-0.002444005076540634;-1416.6666666666667;1416.6642226615902
0.2920000000000002;-9022436433.0;-9052954102.0;-382317.0;4799.997706839496;4826.869486131251;-49.810784278904976;-0.0022630906642007176;-666.6666666666666;666.6644035760024
0.2960000000000002;-9003236441.0;-9033673096.0;-463331.0;4799.997698304196;4831.678262434676;-59.48041007457596;-0.0021338248643587576;1083.3333333333333;-1083.3354671581976
0.3000000000000002;-8984036450.0;-9014348145.0;-588290.0;4799.9976900011725;4827.76184105853;-63.061537550077446;-0.0020757559013873106;916.6666666666666;-916.668742422568
0.3040000000000002;-8964836458.0;-8995133057.0;-603387.0;4799.997681733927;4812.593419461347;-48.79894439919099;-0.0020668114757427247;-1333.3333333333333;1333.3312665218575
0.3080000000000002;-8945636466.0;-8975928955.0;-607497.0;4799.9976734153215;4790.4951695528625;-26.947302780828068;-0.002079651267195004;-416.6666666666667;416.6645870153995
0.3120000000000002;-8926436475.0;-8956680908.0;-655552.0;4799.997665028621;4811.534417162679;-50.86985867850581;-0.0020966751890227897;-2666.6666666666665;2666.6645699914775
0.3160000000000002;-8907236483.0;-8937570190.0;-566279.0;4799.997656601813;4788.6843752292025;-22.66344509042483;-0.0021067019133624854;-1500.0;1499.9978932980866
0.32000000000000023;-8888036492.0;-8918371582.0;-564895.0;4799.9976481669255;4784.560566553258;-18.456604816545223;-0.002108721901095123;-1416.6666666666667;1416.6645579447656
0.32400000000000023;-8868836500.0;-8899315796.0;-420690.0;4799.997639742137;4765.216252170078;9.540001136811043;-0.0021061971438030014;-2166.6666666666665;2166.6645604695227
0.32800000000000024;-8849636509.0;-8880457764.0;-78730.0;4799.997631334372;4700.83608659593;94.43775828004709;-0.002101941163346055;-3583.3333333333335;3583.33123139217
0.33200000000000024;-8830436517.0;-8861500854.0;164351.0;4799.997622947961;4745.819410809286;64.0392856487315;-0.0020966028841939988;-7250.0;7249.997903397116
0.33600000000000024;-8811236526.0;-8842417603.0;281092.0;4799.997614573089;4755.24369932589;61.61944873262655;-0.002093717966999975;-250.0;249.997906282033
0.34000000000000025;-8792036535.0;-8823306885.0;370365.0;4799.997606213512;4774.856005380102;47.36351429656588;-0.002089894223900046;1583.3333333333333;-1583.3354232275572
0.34400000000000025;-8772836543.0;-8804229126.0;492597.0;4799.99759786259;4790.12515911515;39.42827219251194;-0.0020877305360045284;4166.666666666667;-4166.668754397203
0.34800000000000025;-8753636552.0;-8785025024.0;488487.0;4799.997589524362;4792.399046609283;36.90777634229107;-0.0020845568542426918;2416.6666666666665;-2416.6687512235208
0.35200000000000026;-8734436561.0;-8765870361.0;533815.0;4799.997581194793;4798.144103799447;33.88239080604308;-0.002082392256852472;1500.0;-1500.0020823922569
0.35600000000000026;-8715236570.0;-8746754150.0;617595.0;4799.997572879939;4773.625518893279;63.42776737744771;-0.002078713578157476;2750.0;-2750.002078713578
0.36000000000000026;-8696036579.0;-8727434692.0;498128.0;4799.997564572009;4822.811596065939;7.0736618809751235;-0.002076982582366327;166.66666666666666;-166.66874364924902
0.36400000000000027;-8676836587.0;-8708032837.0;296264.0;4799.9975562773525;4851.296174690299;-33.52276505562895;-0.002073664063573233;4583.333333333333;-4583.335406997397
0.36800000000000027;-8657636596.0;-8688751831.0;215250.0;4799.9975479939485;4820.039061532214;-7.126500200185546;-0.002070850996460649;3500.0;-3500.0020708509965
0.3720000000000003;-8638436605.0;-8669547729.0;211139.0;4799.997539724106;4812.416231639795;0.24966140191554587;-0.002067460627586115;-83.33333333333333;83.33126587270574
0.3760000000000003;-8619236614.0;-8650332642.0;196043.0;4799.9975314643625;4787.974012224667;23.78611253894178;-0.0020649358702939935;-2000.0;1999.9979350641297
0.3800000000000003;-8600036623.0;-8631040649.0;104041.0;4799.997523220201;4820.04308609511;-13.803089597407052;-0.0020610402771126246;-2583.3333333333335;2583.3312722930564
0.3840000000000003;-8580836632.0;-8611858521.0;121904.0;4799.997514983542;4788.494460912436;18.817307331667507;-0.002059164899037569;1250.0;-1250.002059164899
0.3880000000000003;-8561636641.0;-8592522583.0;-14043.0;4799.997506761308;4831.982858742454;-32.82791873959468;-0.0020555585251713637;-666.6666666666666;666.6646111081415
0.3920000000000003;-8542436650.0;-8573274536.0;-62099.0;4799.997498551482;4837.271719413772;-41.000147641992044;-0.0020524564661172917;500.0;-500.0020524564661
0.3960000000000003;-8523236659.0;-8554004517.0;-132127.0;4799.997490355217;4813.763941297334;-21.694057742869518;-0.0020490660972427577;1166.6666666666667;-1166.668715732764
0.4000000000000003;-8504036669.0;-8534750977.0;-185676.0;4799.9974821693395;4817.038215517164;-28.181280167322257;-0.002046469489869196;0.0;-0.002046469489869196
0.4040000000000003;-8484836678.0;-8515557861.0;-178801.0;4799.9974739996205;4792.540801336557;-3.2713741788320476;-0.002042429741777596;333.3333333333333;-333.3353757630751
0.4080000000000003;-8465636687.0;-8496183472.0;-353200.0;4799.997465838847;4843.934851737518;-65.12937275933382;-0.0020401932943059364;-1250.0;1249.9979598067057
0.4120000000000003;-8446436696.0;-8476957397.0;-379284.0;4799.997457693654;4819.955753835287;-42.715323023429846;-0.002036298383245594;1000.0;-1000.0020362983832
0.4160000000000003;-8427236706.0;-8457698364.0;-438326.0;4799.997449560291;4807.401785155591;-33.70388249835469;-0.0020333407064754283;416.6666666666667;-416.66870000737316
0.4200000000000003;-8408036715.0;-8438455811.0;-480888.0;4799.99744144049;4811.933511424042;-40.78933690736358;-0.0020299503376008943;-750.0;749.9979700496624
0.4240000000000003;-8388836724.0;-8419235229.0;-501480.0;4799.99743333425;4791.337281946484;-21.428635557895177;-0.0020265599687263602;-166.66666666666666;166.66464010669793
0.4280000000000003;-8369636734.0;-8400014648.0;-522070.0;4799.997425243013;4795.167227912683;-26.493989638600397;-0.0020228092125762487;-1500.0;1499.9979771907874
0.43200000000000033;-8350436743.0;-8381002808.0;-333919.0;4799.997417161588;4756.68519091323;23.277099260538307;-0.002020356305365567;-2500.0;2499.9979796436946
0.43600000000000033;-8331236753.0;-8361815186.0;-321551.0;4799.99740909632;4803.630555924822;-22.926193838577092;-0.002016317012021318;-4250.0;4249.997983682988
0.44000000000000034;-8312036762.0;-8342627563.0;-309183.0;4799.997401044037;4807.764750512123;-26.318316500975925;-0.0020130705706833396;-583.3333333333334;583.3313202627627
0.44400000000000034;-8292836772.0;-8323593750.0;-143006.0;4799.997393007623;4749.046599786282;42.37044616470757;-0.0020091035821678815;1333.3333333333333;-1333.3353424369154
0.44800000000000034;-8273636781.0;-8304455566.0;-81199.0;4799.997384981885;4780.361203454479;14.764254450461522;-0.0020064344425918534;-250.0;249.9979935655574
0.45200000000000035;-8254436791.0;-8285515137.0;178362.0;4799.9973769723065;4734.779549727339;75.91956014526659;-0.0020023946945002535;-2666.6666666666665;2666.664664271972
0.45600000000000035;-8235236800.0;-8266387939.0;251155.0;4799.997368975135;4780.634666227762;34.4320156254862;-0.001999292862819857;-3000.0;2999.998000707137
0.46000000000000035;-8216036810.0;-8247343140.0;406346.0;4799.997360995275;4786.422204783391;37.95592906507227;-0.0019949650322814705;-416.6666666666667;416.6646717016344
0.46400000000000036;-8196836820.0;-8228204956.0;468153.0;4799.99735302638;4783.941373037535;44.145172820568405;-0.001992223815250327;1750.0;-1750.0019922238153
0.46800000000000036;-8177636829.0;-8208967896.0;431083.0;4799.997345076528;4813.729592806589;12.13274507582264;-0.001987462837860221;3000.0;-3000.001987462838
0.47200000000000036;-8158436839.0;-8189796753.0;459930.0;4799.997337136198;4777.669503809467;49.92364611160974;-0.001985082462852006;4666.666666666667;-4666.66865174913
0.47600000000000037;-8139236849.0;-8170598145.0;461313.0;4799.997329213758;4795.699379889998;31.97674208497574;-0.0019806100226560375;333.3333333333333;-333.33531394335597
0.48000000000000037;-8120036859.0;-8151432495.0;495653.0;4799.9973213045905;4802.3256792847515;27.410834756871736;-0.0019772919586102944;-83.33333333333333;83.33135604137472
0.4840000000000004;-8100836868.0;-8132041626.0;304774.0;4799.997313411581;4843.927458172943;-25.643692048618504;-0.00197325243789237;500.0;-500.0019732524379
