Zeit[sec];Sollposition[°];Istposition[°];Positionsschleppfehler[°];Sollgeschwindigkeit[°/s];Istgeschwindigkeit[°/s];Geschwindigkeitsdifferenz[°/s];Sollbeschleunigung[°/s*s];Istbeschleunigung[°/s*s];Beschleunigungsdifferenz[°/s*s]
0.0;0.0;-5493.0;5493.0;-0.0;-2.3747180516202566;2.6109170516202567;0.0;0.0;0.0
0.004;0.0;0.0;0.0;-0.0;1.044832467023558;-1.044832467023558;0.0;0.0;0.0
0.008;0.0;-5493.0;5493.0;-0.0;-2.0407327640217527;2.276931764021753;0.0;0.0;0.0
0.012;0.0;0.0;0.0;-0.0;0.013490286887008042;-0.013490286887008042;0.0;0.0;0.0
0.016;0.0;0.0;0.0;-0.0;-0.44142489844764976;0.44142489844764976;0.0;0.0;0.0
0.02;0.0;0.0;0.0;-0.0;0.6959552941377946;-0.6959552941377946;0.0;0.0;0.0
0.024;0.0;-5493.0;5493.0;-0.0;-1.2034060601824907;1.4396050601824908;0.0;0.0;0.0
0.028;0.0;-5493.0;5493.0;-0.0;-1.2670614482572795;1.5032604482572796;0.0;0.0;0.0
0.032;0.0;5493.0;-5493.0;-0.0;4.378590813122493;-4.614789813122493;0.0;0.0;0.0
0.036000000000000004;0.0;0.0;0.0;-0.0;-0.3271538000789551;0.3271538000789551;0.0;0.0;0.0
0.04000000000000001;0.0;0.0;0.0;-0.0;0.5234071919164616;-0.5234071919164616;0.0;0.0;0.0
0.04400000000000001;0.0;-5493.0;5493.0;-0.0;-2.5116610848192145;2.7478600848192145;0.0;0.0;0.0
0.048000000000000015;-246.0;0.0;0.0;-0.06152944615812799;-0.33553007099500515;0.33553007099500515;-15.382361539531997;0.0;-15.382361539531997
0.05200000000000002;-2698.0;0.0;-97.0;-0.6131823326342682;0.23150658078296302;-0.26007304478706456;-137.91322161903506;0.0;-137.91322161903506
0.05600000000000002;-14754.0;0.0;-1217.0;-3.013915505175063;0.1049442084496855;-0.43716588042066906;-600.1832931351987;0.0;-600.1832931351987
0.060000000000000026;-54602.0;0.0;-7464.0;-9.962018408375096;0.14325848741987987;-2.026013670379056;-1737.0257258000083;0.0;-1737.0257258000083
0.06400000000000003;-155690.0;-10986.0;-19496.0;-25.27198463635905;-5.147342671773653;-1.4456482744795052;-3827.4915569959885;0.0;-3827.4915569959885
0.06800000000000003;-367114.0;-5493.0;-88955.0;-52.85600127021366;-1.8103693591812884;-18.006164899918698;-6896.004158463653;0.0;-6896.004158463653
0.07200000000000004;-748979.0;-5493.0;-233431.0;-95.46635404112821;-1.171601765885307;-44.9848406321701;-10652.588192728637;0.0;-10652.588192728637
0.07600000000000004;-1366407.0;-27466.0;-489813.0;-154.3568169009668;-6.937784161353771;-83.71289009830147;-14722.615714959647;-250.0;-14472.615714959647
0.08000000000000004;-2286490.0;-27466.0;-964076.0;-230.0209017843005;-1.190288694198449;-158.83081167160648;-18916.021220833423;-166.66666666666666;-18749.354554166755
0.08400000000000005;-3577530.0;-82397.0;-1645191.0;-322.75982780215645;-10.662870474142416;-244.0917255259206;-23184.73150446399;-666.6666666666666;-22518.064837797323
0.08800000000000005;-5306883.0;-197754.0;-2595222.0;-432.3382755176953;-30.01839579804344;-347.9232428592545;-27394.611928884715;-1333.3333333333333;-26061.278595551383
0.09200000000000005;-7536659.0;-422974.0;-3832653.0;-557.4439797361581;-61.53271741382936;-468.9339395996568;-31276.4260546157;-3083.3333333333335;-28193.092721282363
0.09600000000000006;-10319740.0;-802002.0;-5378819.0;-695.7701038261912;-95.81806232241915;-616.769825924185;-34581.53102250827;-5750.0;-28831.531022508272
0.10000000000000006;-13697362.0;-1636963.0;-6990079.0;-844.4056261445257;-239.57585887250593;-672.5526234840063;-37158.88057958364;-9583.333333333334;-27575.547246250302
0.10400000000000006;-17697778.0;-4367065.0;-7275542.0;-1000.1039639525;-705.0371830338414;-361.70238432819303;-38924.584451993556;-32833.333333333336;-6091.251118660217
0.10800000000000007;-22336652.0;-8508911.0;-6754762.0;-1159.7184667039521;-1036.1722828679153;-159.5491561673598;-39903.62568786304;-67250.0;27346.37431213696
0.11200000000000007;-27619860.0;-13315430.0;-6198149.0;-1320.8018572597518;-1202.403161924997;-126.59357044375452;-40270.847638949934;-83083.33333333333;42812.485694383395
0.11600000000000008;-33547492.0;-18764648.0;-5639532.0;-1481.9079205643607;-1372.948659131661;-92.20148977262897;-40276.51582615221;-70583.33333333333;30306.817507181124
0.12000000000000008;-40117366.0;-24889526.0;-5049591.0;-1642.4684317519168;-1531.7012755236622;-69.16518356258962;-40140.127796889035;-47416.666666666664;7276.538869777632
0.12400000000000008;-47327212.0;-31640625.0;-4476987.0;-1802.4613325065268;-1691.93785353114;-45.19626112142373;-39998.2251886525;-39916.666666666664;-81.55852198583352
0.12800000000000009;-55175560.0;-38886108.0;-4051354.0;-1962.0870458808492;-1823.238765008881;-55.93178975792421;-39906.428343580614;-39166.666666666664;-739.7616769139504
0.1320000000000001;-63661797.0;-46719360.0;-3677354.0;-2121.5589812973512;-1966.4985027354685;-56.44069456934653;-39867.9838541255;-36250.0;-3617.983854125498
0.1360000000000001;-72785860.0;-55162354.0;-3331880.0;-2281.01580112064;-2104.7696879439386;-62.881021666259585;-39864.20495582218;-36000.0;-3864.2049558221743
0.1400000000000001;-82547920.0;-64121704.0;-3107917.0;-2440.514886856561;-2249.0484037218216;-68.43874025107198;-39874.7714339803;-35000.0;-4874.7714339803
0.1440000000000001;-92948163.0;-73696289.0;-2906614.0;-2600.060542080861;-2418.9126963074405;-49.39208483062475;-39886.41380607498;-35250.0;-4636.413806074984
0.1480000000000001;-103986704.0;-84182739.0;-2431515.0;-2759.6352439804136;-2631.2737052898915;23.880878993242277;-39893.67547488814;-39416.666666666664;-477.008808221477
0.1520000000000001;-115663586.0;-95344849.0;-1918984.0;-2919.220160176156;-2791.7526370842206;46.84174487848486;-39896.22904893554;-45333.333333333336;5437.1042843977975
0.1560000000000001;-127978781.0;-107083740.0;-1467986.0;-3078.7987528032754;-2941.484532661116;56.38797294234928;-39894.648156779906;-46083.333333333336;6188.6851765534275
0.16000000000000011;-140932144.0;-119053345.0;-1424604.0;-3238.340524586302;-2998.0018144645464;-44.81166840441847;-39885.44294575661;-37833.333333333336;-2052.1096124232727
0.16400000000000012;-154523275.0;-131347046.0;-1695382.0;-3397.782733258403;-3087.815552014286;-126.20541564460063;-39860.552168025264;-26250.0;-13610.552168025264
0.16800000000000012;-168750778.0;-144261475.0;-1983441.0;-3556.8755659995018;-3244.979946164691;-140.9300708065466;-39773.208185274714;-23500.0;-16273.20818527471
0.17200000000000013;-183609374.0;-158126221.0;-1958401.0;-3714.6486652725844;-3483.9106595878015;-60.22690733549598;-39443.27481827065;-31416.666666666668;-8026.608151603984
0.17600000000000013;-199085028.0;-173177490.0;-1381125.0;-3868.9134504130593;-3773.3449240432433;95.45859895348303;-38566.196285118735;-49166.666666666664;10600.47038154793
0.18000000000000013;-215151168.0;-188931885.0;-726282.0;-4016.534668482573;-3933.1508216048132;127.03290516485276;-36905.304517378456;-60166.666666666664;23261.36214928821
0.18400000000000014;-231767833.0;-204906006.0;-458318.0;-4154.166058265288;-3982.06206912996;35.81533355930151;-34407.84744567861;-52500.0;18092.152554321387
0.18800000000000014;-248882848.0;-221369019.0;-276260.0;-4278.753494507293;-4127.066397642553;44.948821676224725;-31146.859060501356;-35250.0;4103.140939498644
0.19200000000000014;-266434218.0;-238381348.0;-74958.0;-4387.842496359361;-4255.473754741253;49.49396460920889;-27272.250463016917;-26583.333333333332;-688.9171296835848
0.19600000000000015;-284353491.0;-255690308.0;-51101.0;-4479.817879309593;-4314.024821035437;-9.448096681314382;-22993.845737558106;-27416.666666666668;4422.820929108564
0.20000000000000015;-302569161.0;-273092651.0;-343439.0;-4553.917220972104;-4358.941478558605;-79.49650365493835;-18524.835415627647;-24000.0;5475.164584372351
0.20400000000000015;-321009808.0;-290775146.0;-695578.0;-4610.16158145401;-4435.709093126833;-102.85895309025454;-14061.090120476592;-16083.333333333334;2022.2432128567416
0.20800000000000016;-339608231.0;-309039917.0;-733940.0;-4649.605557415567;-4576.440391332576;-30.90208392241584;-9860.993990389261;-15666.666666666666;5805.672676277405
0.21200000000000016;-358306684.0;-327700195.0;-575546.0;-4674.613174118419;-4663.086313218542;12.866890407598476;-6251.90417571298;-24750.0;18498.09582428702
0.21600000000000016;-377060548.0;-346514282.0;-398618.0;-4688.465767374686;-4694.505115120085;18.074971472496145;-3463.148314066757;-25833.333333333332;22370.185019266573
0.22000000000000017;-395838908.0;-365542603.0;-90134.0;-4694.589783767685;-4759.611941575823;75.7771976821814;-1531.0040982496957;-19250.0;17718.995901750306
0.22400000000000017;-414623165.0;-384856567.0;460579.0;-4696.064017332698;-4829.8983117962825;158.89053214813976;-368.558391253373;-13750.0;13381.441608746627
0.22800000000000017;-433404534.0;-404263916.0;1087373.0;-4695.341958155004;-4831.182842274012;182.80146984125076;180.51479442351592;-13750.0;13930.514794423516
0.23200000000000018;-452180736.0;-423237305.0;1277685.0;-4694.050155595205;-4736.545675128981;95.71703606536084;322.950639949795;-6083.333333333333;6406.283973283128
0.23600000000000018;-470952744.0;-441925049.0;1186091.0;-4693.001920594899;-4685.377522957415;41.54542651746033;262.05875007644863;8500.0;-8237.941249923551
0.24000000000000019;-489722433.0;-460717163.0;1203636.0;-4692.421899425271;-4705.2439455562035;63.35817760432565;145.00529240717697;14083.333333333334;-13938.328040926157
0.2440000000000002;-508491340.0;-479421387.0;1136747.0;-4692.2265373463915;-4652.676492237179;8.778519971252535;48.84051971976078;7916.666666666667;-7867.826146946906
0.2480000000000002;-527260312.0;-497757568.0;703535.0;-4692.242758981593;-4584.566684717959;-77.5291502571099;-4.055408800468285;5833.333333333333;-5837.388742133801
0.25200000000000017;-546029619.0;-516115723.0;292753.0;-4692.32661396477;-4594.926160904462;-84.71957376650244;-20.963745794233546;9000.0;-9020.963745794234
0.25600000000000017;-564799216.0;-534907837.0;315763.0;-4692.39912846504;-4691.825223100285;13.127120976741935;-18.1286250674475;4833.333333333333;-4851.4619584007805
0.2600000000000002;-583568961.0;-553452759.0;91264.0;-4692.43600694636;-4631.499592708758;-56.9309287845399;-9.219620329986356;-4666.666666666667;4657.447046336681
0.2640000000000002;-602338734.0;-571810913.0;-320236.0;-4692.442949069608;-4603.364450899976;-102.81902241703119;-1.7355308120841073;-1916.6666666666667;1914.9311358545826
0.2680000000000002;-621108473.0;-590410767.0;-490137.0;-4692.434652048243;-4659.735994751748;-53.77843955315802;2.0742553413128917;2333.3333333333335;-2331.2590779920206
0.2720000000000002;-639878167.0;-609406128.0;-264535.0;-4692.423271799375;-4749.481934024263;45.667310270491726;2.8450622171476425;-2166.6666666666665;2169.511728883814
0.2760000000000002;-658647828.0;-628406982.0;-33402.0;-4692.415011239847;-4728.37895800161;34.51248342886447;2.0651398817790323;-13750.0;13752.065139881779
0.2800000000000002;-677417474.0;-647171631.0;-38435.0;-4692.411188011146;-4680.953033310049;-13.119734987693846;0.9558071753872355;-8500.0;8500.955807175387
0.2840000000000002;-696187117.0;-665798950.0;-180771.0;-4692.410618544961;-4666.795459184657;-33.3912376064618;0.14236654624255607;3500.0;-3499.8576334537574
0.2880000000000002;-714956765.0;-684624023.0;-125343.0;-4692.411568466372;-4710.383845466054;12.583111837623619;-0.23748035278003954;7000.0;-7000.23748035278
0.2920000000000002;-733726416.0;-703558960.0;39949.0;-4692.412755146686;-4733.324883074528;42.63169156386448;-0.29667007856915006;-333.3333333333333;333.03666325476416
0.2960000000000002;-752496072.0;-722493896.0;205236.0;-4692.41357490159;-4736.513350459422;52.92646505879293;-0.20493872602855845;-6250.0;6249.795061273971
0.3000000000000002;-771265728.0;-741566162.0;507849.0;-4692.413929886983;-4783.43350287552;112.85793666203335;-0.08874634818312188;-4833.333333333333;4833.24458698515
0.3040000000000002;-790035385.0;-760781250.0;953281.0;-4692.413962058872;-4786.296994381288;134.87436653677923;-0.00804297224021866;-7000.0;6999.99195702776
0.3080000000000002;-808805041.0;-779276733.0;679108.0;-4692.41385363167;-4600.6324442902;-62.57985227244262;0.027106800644105533;1000.0;-999.9728931993559
0.3120000000000002;-827574697.0;-797508545.0;141263.0;-4692.413731843762;-4562.461676718934;-123.87793316174339;0.030446976779785473;14250.0;-14249.96955302322
0.3160000000000002;-846344353.0;-815943604.0;-193334.0;-4692.413652447312;-4613.177417960021;-87.54975001996263;0.01984911250474397;19083.333333333332;-19083.313484220827
0.32000000000000023;-865114008.0;-834691772.0;-214822.0;-4692.413621013377;-4668.518560070622;-33.13248700728673;0.007858483741074451;5250.0;-5249.992141516259
0.32400000000000023;-883883663.0;-853159790.0;-516459.0;-4692.4136209879125;-4618.727654300232;-95.8937231492273;6.3662355387350544e-06;-6416.666666666667;6416.6666730329025
0.32800000000000024;-902653319.0;-871792603.0;-653301.0;-4692.413633492479;-4667.977786789342;-52.52777739812518;-0.0031261415642802604;-4416.666666666667;4416.663540525103
0.33200000000000024;-921422974.0;-890875854.0;-339706.0;-4692.413646106151;-4772.5612949247225;65.54031097879397;-0.003153417992507457;-4416.666666666667;4416.6635132486745
0.33600000000000024;-940192630.0;-910074463.0;89248.0;-4692.413653837123;-4790.823842048453;102.24786762812346;-0.0019327430891280528;-12666.666666666666;12666.664733923577
0.34000000000000025;-958962285.0;-929075317.0;320446.0;-4692.413656603407;-4743.563554927118;64.92908382967016;-0.0006915709036547923;-12250.0;12249.999308429096
0.34400000000000025;-977731941.0;-947938843.0;414317.0;-4692.413656311695;-4718.750628781255;44.152604892645286;7.292783266166225e-05;-1166.6666666666667;1166.6667395944994
0.34800000000000025;-996501596.0;-966972656.0;678474.0;-4692.413654915852;-4765.61913584107;102.37986136953077;0.00034896083889179863;5750.0;-5749.999651039161
0.35200000000000026;-1015271252.0;-985902100.0;838263.0;-4692.413653625414;-4727.019216609766;70.65086984980462;0.0003226095941499807;1583.3333333333333;-1583.333010723739
0.35600000000000026;-1034040907.0;-1004452515.0;619022.0;-4692.413652881086;-4629.3286739254745;-36.467034486920056;0.0001860819338617148;3416.6666666666665;-3416.6664805847327
0.36000000000000026;-1052810563.0;-1022860107.0;256959.0;-4692.413652644906;-4611.81645697879;-69.5479593590735;5.904507816012483e-05;10083.333333333334;-10083.333274288256
0.36400000000000027;-1071580218.0;-1041580811.0;208007.0;-4692.413652703236;-4683.216504841796;-0.2528469500111896;-1.4582610674551688e-05;10000.0;-10000.00001458261
0.36800000000000027;-1090349874.0;-1060219116.0;76657.0;-4692.413652856274;-4646.158630404858;-42.95877126456071;-3.825948624580633e-05;250.0;-250.00003825948625
0.3720000000000003;-1109119529.0;-1078533325.0;-378790.0;-4692.413652987019;-4579.764622880347;-128.9369998832235;-3.268633008701727e-05;-500.0;499.9999673136699
0.3760000000000003;-1127889185.0;-1097138672.0;-543098.0;-4692.413653058159;-4666.269959380008;-49.4969075272038;-1.778494151949417e-05;3333.3333333333335;-3333.333351118275
0.3800000000000003;-1146658840.0;-1116112061.0;-339365.0;-4692.41365307728;-4740.707227717774;33.70087970332315;-4.780304152518511e-06;-2000.0;1999.9999952196958
0.3840000000000003;-1165428496.0;-1135107422.0;-113659.0;-4692.413653068512;-4732.67551690946;35.37452684413802;2.1921096049482003e-06;-12000.0;12000.00000219211
0.3880000000000003;-1184198151.0;-1153976440.0;-14297.0;-4692.41365305222;-4713.568687589436;20.540263515750667;4.072944648214616e-06;-10833.333333333334;10833.333337406279
0.3920000000000003;-1202967807.0;-1172839966.0;79574.0;-4692.41365303885;-4724.04177001212;35.04979895001452;3.3426204026909545e-06;-166.66666666666666;166.66667000928706
0.3960000000000003;-1221737462.0;-1191665039.0;134991.0;-4692.413653032134;-4704.958299426886;18.34925937987282;1.6789272194728255e-06;3500.0;-3499.999998321073
0.4000000000000003;-1240507118.0;-1210248413.0;-51290.0;-4692.413653030704;-4652.335446788277;-42.28367624799375;3.574314177967608e-07;4416.666666666667;-4416.666666309236
0.4040000000000003;-1259276773.0;-1228848267.0;-221092.0;-4692.413653031886;-4662.248053619118;-39.672555412484144;-2.9535840440075845e-07;5833.333333333333;-5833.333333628691
0.4080000000000003;-1278046429.0;-1247772217.0;-66797.0;-4692.413653033751;-4731.161423143822;35.87549911263886;-4.6634340833406895e-07;1916.6666666666667;-1916.6666671330102
0.4120000000000003;-1296816084.0;-1266937866.0;329196.0;-4692.413653034994;-4794.647531619569;116.38930658695153;-3.108198143308982e-07;-7250.0;7249.99999968918
0.4160000000000003;-1315585740.0;-1285773926.0;395601.0;-4692.413653035492;-4699.51540397606;24.112593941827072;-1.2437340046744794e-07;-10250.0;10249.999999875627
0.4200000000000003;-1334355395.0;-1304192505.0;44524.0;-4692.413653035679;-4601.817140230432;-88.68198080475213;-4.6838977141305804e-08;3166.6666666666665;-3166.6666667135055
0.4240000000000003;-1353125051.0;-1322731934.0;-185702.0;-4692.413653035492;-4641.064558454075;-59.33428058147638;4.6838977141305804e-08;13166.666666666666;-13166.666666619827
0.4280000000000003;-1371894706.0;-1341441650.0;-245642.0;-4692.413653035431;-4680.956898515777;-22.019360519831025;1.5234036254696548e-08;8500.0;-8499.999999984766
0.43200000000000033;-1390664362.0;-1359992065.0;-464882.0;-4692.413653035182;-4626.997208456054;-85.4063705794124;6.230038707144558e-08;-1000.0;1000.0000000623004
0.43600000000000033;-1409434017.0;-1378498535.0;-728068.0;-4692.413653035182;-4645.060626626083;-78.65995040924372;0.0;-916.6666666666666;916.6666666666666
0.44000000000000034;-1428203673.0;-1397384033.0;-612225.0;-4692.413653035306;-4728.014676804862;9.275348769678203;-3.115019353572279e-08;-1250.0;1249.9999999688498
0.44400000000000034;-1446973328.0;-1416549683.0;-216231.0;-4692.413653035057;-4790.043316978184;88.33173094295671;6.230038707144558e-08;-8083.333333333333;8083.333333395633
0.44800000000000034;-1465742984.0;-1435484619.0;-50950.0;-4692.413653035182;-4733.911566162161;39.30706312696566;-3.115019353572279e-08;-12583.333333333334;12583.333333302184
0.45200000000000035;-1484512639.0;-1454468994.0;163769.0;-4692.413653035306;-4756.440965242863;71.06937920776;-3.115019353572279e-08;-4583.333333333333;4583.333333302183
0.45600000000000035;-1503282295.0;-1473596191.0;521311.0;-4692.413653035243;-4778.496463437253;108.49918340203294;1.5688783605583012e-08;-416.6666666666667;416.66666668235547
0.46000000000000035;-1522051950.0;-1492673950.0;829414.0;-4692.413653035243;-4757.461509751795;100.71265871651394;0.0;-1500.0;1500.0
0.46400000000000036;-1540821606.0;-1511367188.0;752997.0;-4692.413653035119;-4670.30465926533;10.269877230084603;3.115019353572279e-08;916.6666666666666;-916.6666666355164
0.46800000000000036;-1559591261.0;-1530038452.0;654605.0;-4692.413653035182;-4663.181060688386;-1.0845773468045081;-1.5688783605583012e-08;8583.333333333334;-8583.333333349023
0.47200000000000036;-1578360917.0;-1548676758.0;523256.0;-4692.413653035182;-4654.881215771337;-15.032429263814265;0.0;10166.666666666666;-10166.666666666666
0.47600000000000037;-1597130572.0;-1567216187.0;293029.0;-4692.413653035182;-4628.173341609625;-51.64006442555274;0.0;5750.0;-5750.0
0.48000000000000037;-1615900228.0;-1585447998.0;-244815.0;-4692.413653035182;-4553.658225692049;-149.2824723431322;0.0;5916.666666666667;-5916.666666666667
0.4840000000000004;-1634669883.0;-1603822632.0;-639837.0;-4692.413653035243;-4605.7970145065865;-114.12962952858743;-1.546140993013978e-08;8333.333333333334;-8333.333333348795
0.4880000000000004;-1653439539.0;-1622603760.0;-628364.0;-4692.413653035243;-4699.878177746439;-19.55512728875692;0.0;583.3333333333334;-583.3333333333334
0.4920000000000004;-1672209195.0;-1641467285.0;-534495.0;-4692.413653035306;-4716.557459550246;1.160521515003893;-1.5688783605583012e-08;-10000.0;9999.999999984311
0.4960000000000004;-1690978850.0;-1660303345.0;-468091.0;-4692.413653035057;-4709.510761143512;-3.0308048917559063;6.230038707144558e-08;-12500.0;12500.0000000623
0.5000000000000003;-1709748506.0;-1679436035.0;-105056.0;-4692.413653035306;-4778.602988587858;81.67192755265933;-6.230038707144558e-08;-8416.666666666666;8416.666666604366
