Zeit[sec];Sollposition[°];Istposition[°];Positionsschleppfehler[°];Sollgeschwindigkeit[°/s];Istgeschwindigkeit[°/s];Geschwindigkeitsdifferenz[°/s];Sollbeschleunigung[°/s*s];Istbeschleunigung[°/s*s];Beschleunigungsdifferenz[°/s*s]
0.0;9817499999.0;9817492676.0;7323.0;0.0;-4.231020018562675;4.670400018568173;0.0;83.33333333333333;-83.33333333333333
0.004;9817499999.0;9817509155.0;-9156.0;0.0;2.8672208445817233;-3.416580844557785;0.0;0.0;0.0
0.008;9817499999.0;9817503662.0;-3663.0;0.0;2.605025109708309;-2.8248051097586453;0.0;0.0;0.0
0.012;9817499999.0;9817492676.0;7323.0;0.0;-2.6010923728123307;3.040472372817829;0.0;0.0;0.0
0.016;9817499999.0;9817492676.0;7323.0;0.0;-3.2480163226723673;3.6873963226778654;0.0;0.0;0.0
0.02;9817499999.0;9817503662.0;-3663.0;0.0;2.0879433929398656;-2.307723392990202;0.0;0.0;0.0
0.024;9817499999.0;9817503662.0;-3663.0;0.0;-0.6797529967278242;0.4599729966774881;0.0;0.0;0.0
0.028;9817499999.0;9817503662.0;-3663.0;0.0;-0.1157996562793851;-0.103980343770951;0.0;0.0;0.0
0.032;9817499999.0;9817509155.0;-9156.0;0.0;6.729913673356176;-7.279273673332238;0.0;0.0;0.0
0.036000000000000004;9817499870.0;9817492676.0;7323.0;-0.03227101127352395;-1.5760869489312173;2.0154669489367154;-8.067752818380987;0.0;-8.067752818380987
0.04000000000000001;9817498584.0;9817481689.0;18258.0;-0.3216023431942868;-9.291444634750485;10.374129683025387;-72.33283298019072;0.0;-72.33283298019072
0.04400000000000001;9817492261.0;9817492676.0;6684.0;-1.5807407282047443;-6.48673690045625;6.74097962487027;-314.7845962526144;0.0;-314.7845962526144
0.048000000000000015;9817471361.0;9817514648.0;-18564.0;-5.2248870973003605;6.271038462489844;-8.204014200574505;-911.036592273904;-83.33333333333333;-827.7032589405707
0.05200000000000002;9817418343.0;9817503662.0;-19651.0;-13.254669990341812;5.605997411876917;-9.803267471768049;-2007.445723260363;-83.33333333333333;-1924.1123899270294
0.05600000000000002;9817307455.0;9817476196.0;-25734.0;-27.72195630322531;-4.362944502748549;-5.568313626118131;-3616.821578220874;0.0;-3616.821578220874
0.060000000000000026;9817052146.0;9817448730.0;-74043.0;-63.827154049874565;-11.046871078304946;-12.339382374702616;-9026.299436662313;-250.0;-8776.299436662313
0.06400000000000003;9816708529.0;9817349854.0;-142976.0;-85.90440131120867;-22.340099630355834;-28.190794179999916;-5519.311815333527;-1416.6666666666667;-4102.64514866686
0.06800000000000003;9816211646.0;9817069702.0;-152300.0;-124.22066445325557;-70.6126336183697;-10.894250120550709;-9579.065785511722;-3750.0;-5829.065785511723
0.07200000000000004;9815526628.0;9816613770.0;-100235.0;-171.2544649217319;-108.08770939526707;1.1067673105555258;-11758.450117119086;-7666.666666666667;-4091.783450452419
0.07600000000000004;9814616129.0;9816053467.0;-110509.0;-227.6248617999332;-148.44639287232607;-0.8284692092055934;-14092.599219550322;-8583.333333333334;-5509.265886216988
0.08000000000000004;9813445283.0;9815256958.0;-87316.0;-292.71149594862254;-200.7280215805024;2.160203758644343;-16271.658537172336;-10500.0;-5771.658537172336
0.08400000000000005;9811985046.0;9814257202.0;-99961.0;-365.0591731330315;-252.04628300982714;-7.051776957209739;-18086.919296102238;-10833.333333333334;-7253.585962768904
0.08800000000000005;9810213281.0;9813021240.0;-148059.0;-442.94113882549243;-315.0839760253802;-14.814416497522359;-19470.491423115236;-13000.0;-6470.491423115234
0.09200000000000005;9808115017.0;9811521606.0;-230482.0;-524.5660197012321;-375.27776352764664;-34.065399925699865;-20406.22021893492;-14583.333333333334;-5822.886885601585
0.09600000000000006;9805681992.0;9809741821.0;-350088.0;-608.2563408339238;-450.3757727906853;-45.47729627057845;-20922.58028317292;-15083.333333333334;-5839.246949839586
0.10000000000000006;9802911104.0;9807577515.0;-414861.0;-692.7217357462779;-549.4404543785677;-32.72085920413781;-21116.348728088524;-17833.333333333332;-3283.0153947551926
0.10400000000000006;9799802298.0;9805144043.0;-546410.0;-777.2015045663793;-616.6991435875445;-57.34063358191338;-21119.942205025352;-19333.333333333332;-1786.608871692021
0.10800000000000007;9796356713.0;9802199707.0;-504961.0;-861.3962928703224;-736.3172459375784;-19.70214372612827;-21048.697075985787;-22250.0;1201.3029240142146
0.11200000000000007;9792575538.0;9799030151.0;-575759.0;-945.2936460819546;-796.0100953081176;-48.62386863180495;-20974.33830290805;-23000.0;2025.661697091948
0.11600000000000008;9788459545.0;9795415649.0;-537925.0;-1028.9982609448678;-900.1217792226225;-26.320674462296097;-20926.153715728276;-22583.333333333332;1657.1796176050561
0.12000000000000008;9784009057.0;9791581421.0;-615656.0;-1112.6219892564043;-958.4504692189918;-56.4785227174666;-20905.932077884132;-21666.666666666668;760.7345887825368
0.12400000000000008;9779224106.0;9787241821.0;-522709.0;-1196.2376351269093;-1090.3792780602203;-2.646567811710156;-20903.911467626243;-20750.0;-153.9114676262443
0.12800000000000009;9774104604.0;9782709961.0;-571986.0;-1279.875386860976;-1126.8281912356317;-52.775272330892676;-20909.4379335167;-22583.333333333332;1673.895399816633
0.1320000000000001;9768650454.0;9777771606.0;-549267.0;-1363.5375497332138;-1250.5129923109264;-11.351789113620498;-20915.54071805945;-19666.666666666668;-1248.8740513927787
0.1360000000000001;9762861594.0;9772536621.0;-564506.0;-1447.2149373033376;-1305.1437763184235;-41.28264594854977;-20919.34689253094;-22416.666666666668;1497.319774135729
0.1400000000000001;9756738003.0;9766961060.0;-573842.0;-1530.8976552911085;-1406.6230379608126;-24.031600499243723;-20920.67949694274;-18500.0;-2420.679496942739
0.1440000000000001;9750279753.0;9761006470.0;-538866.0;-1614.5624937726805;-1481.009444109887;-31.226046140421886;-20916.209620392976;-23583.333333333332;2667.1237129403557
0.1480000000000001;9743487301.0;9754793701.0;-580414.0;-1698.112827967771;-1570.975491382748;-27.428476677452863;-20887.583548772625;-18666.666666666668;-2220.916882105957
0.1520000000000001;9736362022.0;9748163452.0;-538960.0;-1781.3197596741886;-1649.1961926785932;-30.340079465535155;-20801.732926604414;-23083.333333333332;2281.6004067289164
0.1560000000000001;9728906964.0;9741346436.0;-644398.0;-1863.7643891995165;-1712.1332224893868;-57.144181052291515;-20611.157381331963;-18500.0;-2111.1573813319637
0.16000000000000011;9721128508.0;9733991089.0;-543132.0;-1944.6137176940997;-1829.5429875497744;-16.565158918385578;-20212.332123645807;-22333.333333333332;2121.001209687524
0.16400000000000012;9713038977.0;9726470947.0;-604338.0;-2022.382754332839;-1884.1472242838815;-47.44986639187891;-19442.25915968485;-20000.0;557.740840315148
0.16800000000000012;9704658422.0;9718456421.0;-489710.0;-2095.1385513147916;-2009.2841928711384;4.927393825177887;-18188.94924548812;-21833.333333333332;3644.3840878452143
0.17200000000000013;9696014282.0;9710271606.0;-507990.0;-2161.034944666123;-2042.6006975630821;-38.6523155148725;-16474.098337832856;-21583.333333333332;5109.234995500476
0.17600000000000013;9687139542.0;9701751709.0;-471450.0;-2218.685065043951;-2145.0660282821805;-4.060109867311894;-14412.530094456997;-17916.666666666668;3504.1365722096707
0.18000000000000013;9678070490.0;9692946167.0;-399932.0;-2267.2628369820436;-2188.743692651488;-18.758432281624664;-12144.442984523153;-20583.333333333332;8438.890348810179
0.18400000000000014;9668844570.0;9684052734.0;-456930.0;-2306.479861244789;-2244.3742423984036;-20.649156517177744;-9804.256065686332;-13333.333333333334;3529.0772676470024
0.18800000000000014;9659498625.0;9674840698.0;-375003.0;-2336.4861278569906;-2289.773734742619;-15.253584211121051;-7501.566653050418;-17250.0;9748.433346949583
0.19200000000000014;9650067579.0;9665557251.0;-364145.0;-2357.7613630258866;-2346.6917478614228;6.695958004371278;-5318.80879222399;-9000.0;3681.19120777601
0.19600000000000015;9640582672.0;9656114502.0;-300379.0;-2371.226550721766;-2344.464816436641;-18.30353177078905;-3366.2969239699123;-14166.666666666666;10800.369742696754
0.20000000000000015;9631068908.0;9646616821.0;-254600.0;-2378.4410455593297;-2376.665255211532;-1.5861847611581652;-1803.6237093908767;-6166.666666666667;4363.04295727579
0.20400000000000015;9621543372.0;9637130127.0;-263939.0;-2381.383855278829;-2376.912038285412;-12.932389328815134;-735.7024298747774;-6833.333333333333;6097.630903458556
0.20800000000000016;9612015708.0;9627561035.0;-213109.0;-2381.915913696038;-2386.959024249427;-5.3930669516976195;-133.01460430227507;-1583.3333333333333;1450.3187290310582
0.21200000000000016;9602490024.0;9618035889.0;-214274.0;-2381.4208689964084;-2389.893749030888;-4.540256071299154;123.76117490737215;-2083.3333333333335;2207.0945082407056
0.21600000000000016;9592967096.0;9608527222.0;-232474.0;-2380.7319556964517;-2364.02512563584;-31.639833042023383;172.2283249891916;-1500.0;1672.2283249891916
0.22000000000000017;9583446208.0;9598919678.0;-149532.0;-2380.2218572387264;-2400.4769161734284;10.354369883499658;127.52461443130869;583.3333333333334;-455.8087189020247
0.22400000000000017;9573926349.0;9589520874.0;-272864.0;-2379.9644352644978;-2349.4623215469273;-47.44326468270083;64.35549355717285;-83.33333333333333;147.68882689050616
0.22800000000000017;9564406772.0;9579847412.0;-119894.0;-2379.8942906326038;-2412.8241314234956;25.50770911717973;17.536157973495392;1166.6666666666667;-1149.1305086931714
0.23200000000000018;9554887103.0;9570377197.0;-169432.0;-2379.9170810172204;-2383.830087971337;-6.2739643744089335;-5.697596154163875;-833.3333333333334;827.6357371791695
0.23600000000000018;9545367252.0;9560720215.0;-32065.0;-2379.962656519064;-2407.065832777448;25.23819510965359;-11.393875460839809;-1333.3333333333333;1321.9394578724934
0.24000000000000019;9535847265.0;9551206055.0;-37646.0;-2379.996585543377;-2384.7230121894554;2.529234735224236;-8.482256078309547;-1166.6666666666667;1158.1844105883572
0.2440000000000002;9526327220.0;9541763306.0;-114801.0;-2380.011117368064;-2358.73672022786;-28.127181575250233;-3.632956171713886;1083.3333333333333;-1086.9662895050471
0.2480000000000002;9516807174.0;9532238159.0;-109663.0;-2380.0115159742736;-2386.485406708293;-0.09652167371223186;-0.09965155243207846;2916.6666666666665;-2916.7663182190986
0.25200000000000017;9507287150.0;9522888794.0;-280343.0;-2380.0057972850714;-2347.316687620498;-49.51508264134827;1.4296723005600143;2500.0;-2498.57032769944
0.25600000000000017;9497767151.0;9513319702.0;-231288.0;-2379.999736002937;-2377.9630201672094;-15.923506100514714;1.5153205335991515;416.6666666666667;-415.15134613306753
0.2600000000000002;9488247167.0;9503865967.0;-297567.0;-2379.99585210509;-2379.4447104089036;-18.412737180465683;0.9709744617794058;-500.0;500.9709744617794
0.2640000000000002;9478727189.0;9494307861.0;-259454.0;-2379.9943336585698;-2376.488916875206;-19.076554738282084;0.3796116300236463;-2166.6666666666665;2167.04627829669
0.2680000000000002;9469207211.0;9484810181.0;-281756.0;-2379.994343828299;-2386.777753920682;-10.122878901292097;-0.002542432298469066;0.0;-0.002542432298469066
0.2720000000000002;9459687231.0;9475350952.0;-342505.0;-2379.994955549182;-2355.279614455648;-45.265032132208034;-0.15293022079276852;-1250.0;1249.8470697792072
0.2760000000000002;9450167248.0;9465754395.0;-265927.0;-2379.9955650366196;-2387.920216863111;-8.029989443313298;-0.15237185937166942;1000.0;-1000.1523718593717
0.2800000000000002;9440647264.0;9456245728.0;-277241.0;-2379.9959324532183;-2383.3879916267174;-13.241661990365628;-0.09185414967305405;-1083.3333333333333;1083.2414791836602
0.2840000000000002;9431127279.0;9446665649.0;-217146.0;-2379.9960566041923;-2386.565212423891;-6.459254716505711;-0.03103774349710875;-500.0;499.9689622565029
0.2880000000000002;9421607295.0;9437113037.0;-184518.0;-2379.9960318977624;-2405.8324817916305;14.765422267255872;0.006176607485031127;-333.3333333333333;333.33950994081835
0.2920000000000002;9412087311.0;9427593384.0;-184849.0;-2379.9959539939914;-2368.5340379800127;-22.55294810107216;0.01947594273588038;-1500.0;1500.0194759427359
0.2960000000000002;9402567327.0;9417974854.0;-86303.0;-2379.9958817036404;-2400.8921415412724;15.717960386250525;0.018072587749884406;500.0;-499.9819274122501
0.3000000000000002;9393047343.0;9408526611.0;-158044.0;-2379.995836191079;-2367.8016675818862;-21.67689820654823;0.011378140357010125;-166.66666666666666;166.67804480702367
0.3040000000000002;9383527359.0;9398847656.0;927.0;-2379.9958153721736;-2408.129391159639;28.189147077419875;0.005204726335250598;583.3333333333334;-583.3281286069981
0.3080000000000002;9374007375.0;9389454346.0;-125747.0;-2379.995808733718;-2364.4143448653;-23.126303338123307;0.001659613872107002;750.0;-749.9983403861279
0.3120000000000002;9364487392.0;9379824829.0;-16214.0;-2379.9958065263877;-2389.3827471629456;8.41409430078511;0.0005518326133824303;-750.0;750.0005518326134
0.3160000000000002;9354967408.0;9370316162.0;-27531.0;-2379.995803127111;-2388.9469494785594;7.299281581096693;0.000849819230097637;1333.3333333333333;-1333.3324835141032
0.32000000000000023;9345447424.0;9360747070.0;21577.0;-2379.99579676003;-2382.1043429405468;3.4031577489427036;0.001591770228515088;-1833.3333333333333;1833.3349251035618
0.32400000000000023;9335927441.0;9351166992.0;81672.0;-2379.995787874504;-2387.454148285441;12.358667662858807;0.0022213814645510865;0.0;0.0022213814645510865
0.32800000000000024;9326407457.0;9341641846.0;86834.0;-2379.9957776406213;-2395.1469366518854;20.361183377457564;0.002558470669100643;83.33333333333333;-83.33077486266423
0.33200000000000024;9316887474.0;9331984863.0;223833.0;-2379.995767045663;-2396.7230741866083;30.15727031759343;0.0026487396098673344;-1333.3333333333333;1333.3359820729431
0.33600000000000024;9307367490.0;9322487183.0;201530.0;-2379.995756630107;-2388.9676052003056;21.063631700471888;0.0026038890155177796;916.6666666666666;-916.6640627776511
0.34000000000000025;9297847507.0;9312923584.0;245145.0;-2379.995746535602;-2382.111573165767;16.824510187559554;0.0025236262217731564;-1416.6666666666667;1416.6691902928885
0.34400000000000025;9288327523.0;9303365479.0;283267.0;-2379.995736693452;-2398.7501399760695;35.75040728730255;0.002460537530168949;2833.3333333333335;-2833.3308727958033
0.34800000000000025;9278807540.0;9293911743.0;217019.0;-2379.995726980744;-2370.1870497681125;3.2124470756871233;0.0024281769128720043;-166.66666666666666;166.66909484357953
0.35200000000000026;9269287557.0;9284348145.0;260634.0;-2379.9957172941527;-2384.023842882276;19.66614998200339;0.002421647877781652;1166.6666666666667;-1166.664245018789
0.35600000000000026;9259767573.0;9274888916.0;199880.0;-2379.9957075871225;-2369.2945367524403;1.2916135552918604;0.00242675753270305;500.0;-499.9975732424673
0.36000000000000026;9250247590.0;9265369263.0;199549.0;-2379.9956978446094;-2365.7747656289785;-2.248007873239658;0.002435628289276792;166.66666666666666;-166.66423103837738
0.36400000000000027;9240727607.0;9255866089.0;182740.0;-2379.9956880825093;-2391.0834783815744;22.052174600307353;0.0024405250087511376;1500.0;-1499.9975594749912
0.36800000000000027;9231207624.0;9246478271.0;50575.0;-2379.9956783065004;-2349.497787480302;-27.463406550886702;0.002444002234369691;166.66666666666666;-166.6642226644323
0.3720000000000003;9221687641.0;9236903687.0;105176.0;-2379.995668534465;-2385.0336954541804;11.34857119046137;0.0024430088387816795;750.0;-749.9975569911612
0.3760000000000003;9212167658.0;9227488403.0;477.0;-2379.9956587669717;-2363.604735315636;-16.362319173678316;0.002441873334646516;-500.0;500.00244187333465
0.3800000000000003;9202647675.0;9217864380.0;104517.0;-2379.9956490048717;-2384.919968903072;11.195324183880075;0.0024405250087511376;-1833.3333333333333;1833.335773858342
0.3840000000000003;9193127692.0;9208361206.0;87708.0;-2379.9956392504364;-2389.6735925845283;14.940417630895809;0.00243860881710134;-250.0;250.0024386088171
0.3880000000000003;9183607709.0;9198852539.0;76392.0;-2379.9956294988397;-2366.8565684255436;-8.555556769030318;0.0024378991838602815;-1750.0;1750.0024378991839
0.3920000000000003;9174087726.0;9189338379.0;70569.0;-2379.9956197529195;-2386.2830599435642;10.521564502374076;0.0024364800310650025;2166.6666666666665;-2166.6642301866355
0.3960000000000003;9164567743.0;9179934082.0;-45117.0;-2379.995610007852;-2353.2426068824084;-29.46003880949911;0.0024362668682442745;250.0;-249.99756373313176
0.4000000000000003;9155047760.0;9170354004.0;14978.0;-2379.9956002701642;-2383.6631139661745;4.566178019923427;0.002434421958241728;1250.0;-1249.9975655780418
0.4040000000000003;9145527777.0;9160949707.0;-100708.0;-2379.9955905350316;-2357.598258500956;-28.43982770309185;0.0024337831519005704;-83.33333333333333;83.33576711648523
0.4080000000000003;9136007794.0;9151375122.0;-46106.0;-2379.9955808050086;-2380.056951377571;-2.7050050898483278;0.0024325057665919303;-666.6666666666666;666.6690991724332
0.4120000000000003;9126487812.0;9141948853.0;-139820.0;-2379.9955710809463;-2369.0436365376636;-19.34115019660203;0.0024310155595230754;750.0;-749.9975689844405
0.4160000000000003;9116967829.0;9132467651.0;-178601.0;-2379.9955613611423;-2364.9700379188434;-25.74159908773572;0.00242995099597465;-333.3333333333333;333.3357632843293
0.4200000000000003;9107447846.0;9122986450.0;-217382.0;-2379.995551648151;-2384.5094322454406;-8.52905503866441;0.0024282478534587426;1750.0;-1749.9975717521465
0.4240000000000003;9097927864.0;9113488770.0;-239685.0;-2379.9955419394173;-2387.127072263837;-7.249585303170079;0.002427183403597155;-1000.0;1000.0024271834036
0.4280000000000003;9088407881.0;9103908691.0;-179589.0;-2379.9955322409032;-2386.7549111556636;-4.015976700085957;0.0024246285192930372;-1833.3333333333333;1833.3357579618526
0.43200000000000033;9078887898.0;9094345093.0;-135973.0;-2379.995522544944;-2400.6399167208747;12.485998569754429;0.002423989826638717;-2083.3333333333335;2083.33575732316
0.43600000000000033;9069367916.0;9084754028.0;-64891.0;-2379.9955128577844;-2386.3856722843125;2.496683830928305;0.002421789872641966;-2333.3333333333335;2333.335755123206
0.44000000000000034;9059847934.0;9075119019.0;50135.0;-2379.9955031768695;-2422.5670056682006;45.57958690722171;0.002420228724986373;500.0;-499.997579771275
0.44400000000000034;9050327951.0;9065648804.0;368.0;-2379.9954935047544;-2374.8197443729564;-5.153684703209365;0.002418028770989622;-1250.0;1250.002418028771
0.44800000000000034;9040807969.0;9056024780.0;104410.0;-2379.9954838383173;-2399.109471846193;25.378572447440092;0.00241660927713383;1583.3333333333333;-1583.3309167240561
0.45200000000000035;9031287986.0;9046598511.0;10696.0;-2379.9954741815313;-2371.711547866136;-7.642181862737743;0.002414196501376864;916.6666666666666;-916.6642524701653
0.45600000000000035;9021768004.0;9036963501.0;125724.0;-2379.995464532977;-2390.0862146013083;17.634174535017337;0.0024121385422404273;416.6666666666667;-416.66425452812445
0.46000000000000035;9012248022.0;9027553711.0;15531.0;-2379.9954548912356;-2369.566505238898;-9.497105173695672;0.00241043539972452;1666.6666666666667;-1666.664256231267
0.46400000000000036;9002728040.0;9018061523.0;-12263.0;-2379.995445260565;-2371.03296695593;-9.698273810700812;0.002407667693660187;500.0;-499.99759233230634
0.46800000000000036;8993208057.0;9008541870.0;-12592.0;-2379.9954356361395;-2390.1323926962987;9.381421566887184;0.0024061063186309184;2083.3333333333335;-2083.330927227015
0.47200000000000036;8983688075.0;8999099121.0;-89825.0;-2379.9954260236364;-2360.9936539557725;-24.39128754534795;0.002403125790806371;-1000.0;1000.0024031257908
0.47600000000000037;8974168093.0;8989552002.0;-62689.0;-2379.995416419081;-2379.200848205723;-4.555923675593476;0.00240113888594351;-333.3333333333333;333.33573447221926
0.48000000000000037;8964648111.0;8980054321.0;-84990.0;-2379.995406824461;-2380.7244979005827;-4.3703243713243864;0.0023986549422261305;-500.0;500.0023986549422
0.4840000000000004;8955128129.0;8970430298.0;19051.0;-2379.9953972403446;-2384.6876223390773;5.835269667843022;0.0023960291173352743;-2083.3333333333335;2083.335729362451
