Zeit[sec];Sollposition[°];Istposition[°];Positionsschleppfehler[°];Sollgeschwindigkeit[°/s];Istgeschwindigkeit[°/s];Geschwindigkeitsdifferenz[°/s];Sollbeschleunigung[°/s*s];Istbeschleunigung[°/s*s];Beschleunigungsdifferenz[°/s*s]
0.0;9817499999.0;9817492676.0;7323.0;0.0;-2.847989634864032;3.2873696348695303;0.0;0.0;0.0
0.004;9817499999.0;9817498169.0;1830.0;0.0;-0.5699465544223785;0.6797465544340232;0.0;83.33333333333333;-83.33333333333333
0.008;9817499999.0;9817503662.0;-3663.0;0.0;2.9907851715162397;-3.210565171566576;0.0;0.0;0.0
0.012;9817499999.0;9817503662.0;-3663.0;0.0;3.6213905536904933;-3.8411705537408296;0.0;0.0;0.0
0.016;9817499999.0;9817503662.0;-3663.0;0.0;0.21176967436820268;-0.43154967441853875;0.0;83.33333333333333;-83.33333333333333
0.02;9817499999.0;9817503662.0;-3663.0;0.0;0.26932040333747864;-0.48910040338781474;0.0;0.0;0.0
0.024;9817499999.0;9817503662.0;-3663.0;0.0;2.4050701573938134;-2.6248501574441496;0.0;0.0;0.0
0.028;9817499999.0;9817492676.0;7323.0;0.0;-3.372810680985451;3.812190680990949;0.0;-83.33333333333333;83.33333333333333
0.032;9817499999.0;9817503662.0;-3663.0;0.0;0.6477262029349804;-0.8675062029853164;0.0;0.0;0.0
0.036000000000000004;9817499999.0;9817514648.0;-14649.0;0.0;5.527633072294295;-6.406573072332337;0.0;0.0;0.0
0.04000000000000001;9817499999.0;9817503662.0;-3663.0;0.0;3.1050713845416906;-3.324851384592027;0.0;0.0;0.0
0.04400000000000001;9817499999.0;9817487183.0;12816.0;0.0;-5.331380890011787;6.100340890011139;0.0;0.0;0.0
0.048000000000000015;9817499999.0;9817503662.0;-3663.0;0.0;1.0976831211149694;-1.3174631211653054;0.0;0.0;0.0
0.05200000000000002;9817499999.0;9817514648.0;-14649.0;0.0;7.108858686454594;-7.987798686492637;0.0;0.0;0.0
0.05600000000000002;9817575562.0;9817498169.0;1830.0;18.890676847455897;0.3694048499763012;-0.2596048499646565;4722.669211863974;0.0;4722.669211863974
0.060000000000000026;9817619585.0;9817492676.0;37283.0;11.005750936526391;-5.8660257266685365;15.592863929845603;-1971.2314777323763;166.66666666666666;-2137.898144399043
0.06400000000000003;9817666463.0;9817531128.0;61446.0;11.719473984837736;5.585030107729137;13.75546925845187;178.43076207783605;166.66666666666666;11.764095411169379
0.06800000000000003;9817714288.0;9817542114.0;95799.0;11.956272868490716;2.8366448606178163;14.246226850431363;59.1997209132451;333.3333333333333;-274.1336124200882
0.07200000000000004;9817763469.0;9817558594.0;126556.0;12.295170695078125;2.1019949317201974;17.30054413949275;84.72445664685236;166.66666666666666;-81.9422100198143
0.07600000000000004;9817812756.0;9817586060.0;147447.0;12.321699019813265;7.727928645603359;13.208144422339199;6.632081183784777;83.33333333333333;-76.70125214954855
0.08000000000000004;9817858309.0;9817608032.0;174690.0;11.38831404001998;6.010202733688057;16.7749002980807;-233.34624494832124;166.66666666666666;-400.0129116149879
0.08400000000000005;9817897066.0;9817657471.0;173057.0;9.689225215114165;10.585334853112698;11.749556166902206;-424.7722062264536;416.6666666666667;-841.4388728931203
0.08800000000000005;9817927728.0;9817662964.0;210445.0;7.665490474641738;3.9500114073306323;19.396809514492695;-505.9336851181069;166.66666666666666;-672.6003517847736
0.09200000000000005;9817949001.0;9817701416.0;207580.0;5.318379244997649;9.910558136045934;11.441043473763758;-586.7778074110222;-83.33333333333333;-503.4444740776888
0.09600000000000006;9817960884.0;9817701416.0;234567.0;2.9707489208732705;0.28899980291724203;20.53177556347073;-586.9075810310947;-250.0;-336.90758103109465
0.10000000000000006;9817965668.0;9817739868.0;213720.0;1.195929924066189;7.776473413042725;9.448059695051052;-443.70474920177037;-83.33333333333333;-360.37141586843705
0.10400000000000006;9817966520.0;9817739868.0;222843.0;0.21305855474653626;4.545016432888806;11.10638013370519;-245.71784232991317;-250.0;4.282157670086835
0.10800000000000007;9817966096.0;9817745361.0;220617.0;-0.10615465686155794;1.3070131500437856;12.746642963450034;-79.80330290202355;-333.3333333333333;253.53003043130977
0.11200000000000007;9817965063.0;9817745361.0;220985.0;-0.2581937512543893;-3.1494378308057787;16.500792346771668;-38.00977359820784;-166.66666666666666;128.6568930684588
0.11600000000000008;9817961757.0;9817761841.0;203847.0;-0.8264740957192944;3.692372791916132;8.37388181580836;-142.07008611622626;-166.66666666666666;24.59658055044038
0.12000000000000008;9817954506.0;9817767334.0;196423.0;-1.8128399919234828;0.41959036523848775;10.883172460403784;-246.5914740510471;83.33333333333333;-329.9248073843804
0.12400000000000008;9817941552.0;9817772827.0;186073.0;-3.238425381498379;-1.065050956338644;11.01520796243626;-356.39634739372406;-83.33333333333333;-273.06301406039074
0.12800000000000009;9817919636.0;9817789307.0;160104.0;-5.478976973042475;6.94045949472487;0.293497668842039;-560.1378978860241;0.0;-560.1378978860241
0.1320000000000001;9817886905.0;9817772827.0;160111.0;-8.182701619057246;-0.6319377316758037;6.120181692216011;-675.9311615036927;-250.0;-425.9311615036927
0.1360000000000001;9817844925.0;9817783813.0;122973.0;-10.494971066630583;5.01263963676244;-4.172092954169021;-578.0673618933344;-83.33333333333333;-494.734028560001
0.1400000000000001;9817796994.0;9817756348.0;114103.0;-11.982880871717796;-3.035466467037797;0.7980082778724555;-371.97745127180326;-166.66666666666666;-205.3107846051366
0.1440000000000001;9817746282.0;9817745361.0;80805.0;-12.677928193517555;-3.2294424966275694;-2.9936131054552013;-173.76183044993977;-166.66666666666666;-7.095163783273101
0.1480000000000001;9817695806.0;9817734375.0;42792.0;-12.619060874801741;-4.746069304227829;-4.93614874903472;14.716829678953491;-166.66666666666666;181.38349634562016
0.1520000000000001;9817648766.0;9817728882.0;-2317.0;-11.759970026251292;3.8433599382936956;-16.632895616815055;214.7727121376124;-250.0;464.7727121376124
0.1560000000000001;9817606957.0;9817701416.0;-23965.0;-10.452271266795394;-1.809048518180847;-11.907641184322921;326.9246898639744;-83.33333333333333;410.2580231973077
0.16000000000000011;9817571650.0;9817690430.0;-57966.0;-8.82673362084294;-2.601547651410103;-12.122933984941454;406.3844114881134;-83.33333333333333;489.7177448214468
0.16400000000000012;9817499999.0;9817668457.0;-75255.0;-17.91260833759912;-3.764900179065764;-10.565833107675362;-2271.468679189045;83.33333333333333;-2354.8020125223784
0.16800000000000012;9817499999.0;9817657471.0;-114024.0;0.0;-3.34871723793447;-15.93138837597002;4478.1520843997805;83.33333333333333;4394.818751066447
0.17200000000000013;9817499999.0;9817613525.0;-113107.0;0.0;-7.190317404463888;-10.353404064674155;0.0;-416.6666666666667;416.6666666666667
0.17600000000000013;9817499999.0;9817624512.0;-124513.0;0.0;1.2697335357218982;-8.845470225151189;0.0;83.33333333333333;-83.33333333333333
0.18000000000000013;9817499999.0;9817624512.0;-124513.0;0.0;-0.7620602921545506;-6.708719707796621;0.0;250.0;-250.0
0.18400000000000014;9817499999.0;9817630005.0;-130006.0;0.0;-2.0534652477800845;-5.746894752233068;0.0;750.0;-750.0
0.18800000000000014;9817499999.0;9817640991.0;-140992.0;0.0;2.6113989213109017;-11.070918921311762;0.0;250.0;-250.0
0.19200000000000014;9817499999.0;9817646484.0;-146485.0;0.0;3.263967763841152;-12.053067763835863;0.0;0.0;0.0
0.19600000000000015;9817499999.0;9817646484.0;-146485.0;0.0;1.7195912273153664;-10.508691227310077;0.0;-83.33333333333333;83.33333333333333
0.20000000000000015;9817499999.0;9817635498.0;-135499.0;0.0;-2.3334312956035137;-5.796508704403491;0.0;0.0;0.0
0.20400000000000015;9817499999.0;9817640991.0;-140992.0;0.0;-3.6563962840214375;-4.803123715979422;0.0;-83.33333333333333;83.33333333333333
0.20800000000000016;9817499999.0;9817640991.0;-140992.0;0.0;1.7043228015825154;-10.163842801583375;0.0;-166.66666666666666;166.66666666666666
0.21200000000000016;9817499999.0;9817619019.0;-119020.0;0.0;-4.657903649806976;-2.483296350150341;0.0;-83.33333333333333;83.33333333333333
0.21600000000000016;9817499999.0;9817613525.0;-113526.0;0.0;-6.333415386207402;-0.47814461381517415;0.0;-83.33333333333333;83.33333333333333
0.22000000000000017;9817499999.0;9817619019.0;-119020.0;0.0;0.6414299445375801;-7.782629944494897;0.0;0.0;0.0
0.22400000000000017;9817499999.0;9817608032.0;-108033.0;0.0;1.3711242102310062;-7.853104210259729;0.0;-83.33333333333333;83.33333333333333
0.22800000000000017;9817499999.0;9817591553.0;-91554.0;0.0;-3.9155984546616676;-1.5776415453854957;0.0;83.33333333333333;-83.33333333333333
0.23200000000000018;9817499999.0;9817591553.0;-91554.0;0.0;-2.392773471184075;-3.1004665288630884;0.0;83.33333333333333;-83.33333333333333
0.23600000000000018;9817499999.0;9817586060.0;-86061.0;0.0;-0.4451907719671726;-4.718469228086137;0.0;0.0;0.0
0.24000000000000019;9817499999.0;9817575073.0;-75074.0;0.0;-3.7110994660407304;-0.7933405339477302;0.0;0.0;0.0
0.2440000000000002;9817499999.0;9817569580.0;-69581.0;0.0;-4.834407031871378;0.6595470318767713;0.0;0.0;0.0
0.2480000000000002;9817499999.0;9817586060.0;-86061.0;0.0;2.1972358958274127;-7.360895895880722;0.0;166.66666666666666;-166.66666666666666
0.25200000000000017;9817499999.0;9817569580.0;-69581.0;0.0;-1.7949165029004217;-2.3799434970941853;0.0;-83.33333333333333;83.33333333333333
0.25600000000000017;9817499999.0;9817575073.0;-75074.0;0.0;1.8475627486258746;-6.352002748614336;0.0;83.33333333333333;-83.33333333333333
0.2600000000000002;9817499999.0;9817575073.0;-75074.0;0.0;1.6240285757854582;-6.128468575773919;0.0;0.0;0.0
0.2640000000000002;9817499999.0;9817569580.0;-69581.0;0.0;-1.049436889052391;-3.125423110942216;0.0;83.33333333333333;-83.33333333333333
0.2680000000000002;9817499999.0;9817591553.0;-91554.0;0.0;4.691982415422797;-10.18522241546996;0.0;166.66666666666666;-166.66666666666666
0.2720000000000002;9817499999.0;9817586060.0;-86061.0;0.0;1.404410616196692;-6.568070616250002;0.0;0.0;0.0
0.2760000000000002;9817499999.0;9817580566.0;-80567.0;0.0;-4.296305560819805;-0.5377144391625084;0.0;83.33333333333333;-83.33333333333333
0.2800000000000002;9817499999.0;9817586060.0;-86061.0;0.0;-4.734969444282353;-0.4286905557709568;0.0;-83.33333333333333;83.33333333333333
0.2840000000000002;9817499999.0;9817591553.0;-91554.0;0.0;0.2921106229797006;-5.785350623026864;0.0;-83.33333333333333;83.33333333333333
0.2880000000000002;9817499999.0;9817591553.0;-91554.0;0.0;1.8749311348795892;-7.368171134926753;0.0;-83.33333333333333;83.33333333333333
0.2920000000000002;9817499999.0;9817580566.0;-80567.0;0.0;-2.069053397022188;-2.7649666029601256;0.0;-83.33333333333333;83.33333333333333
0.2960000000000002;9817499999.0;9817580566.0;-80567.0;0.0;1.6354632217213512;-6.469483221703665;0.0;0.0;0.0
0.3000000000000002;9817499999.0;9817575073.0;-75074.0;0.0;-0.10091437751054765;-4.403525622477913;0.0;0.0;0.0
0.3040000000000002;9817499999.0;9817569580.0;-69581.0;0.0;-1.9875160265117884;-2.187343973482818;0.0;0.0;0.0
0.3080000000000002;9817499999.0;9817564087.0;-64088.0;0.0;-3.916068631850183;0.07078863184942952;0.0;83.33333333333333;-83.33333333333333
0.3120000000000002;9817499999.0;9817558594.0;-58595.0;0.0;-2.1857532408684492;-1.3299467591384508;0.0;-166.66666666666666;166.66666666666666
0.3160000000000002;9817499999.0;9817547607.0;-47608.0;0.0;-0.6456858435422183;-2.2107941565360876;0.0;-166.66666666666666;166.66666666666666
0.32000000000000023;9817499999.0;9817542114.0;-42115.0;0.0;-2.0939247273504735;-0.43297527259772384;0.0;0.0;0.0
0.32400000000000023;9817499999.0;9817542114.0;-42115.0;0.0;-0.5497907935529948;-1.9771092063952027;0.0;83.33333333333333;-83.33333333333333
0.32800000000000024;9817499999.0;9817542114.0;-42115.0;0.0;4.391494383536279;-6.918394383484476;0.0;0.0;0.0
0.33200000000000024;9817499999.0;9817531128.0;-31129.0;0.0;1.1929536580070854;-3.060693657967576;0.0;0.0;0.0
0.33600000000000024;9817499999.0;9817531128.0;-31129.0;0.0;-0.2749772339686751;-1.5927627659918155;0.0;83.33333333333333;-83.33333333333333
0.34000000000000025;9817499999.0;9817531128.0;-31129.0;0.0;1.1391662936881184;-3.0069062936486093;0.0;166.66666666666666;-166.66666666666666
0.34400000000000025;9817499999.0;9817525635.0;-25636.0;0.0;-1.0873071841970086;-0.4508528158377565;0.0;0.0;0.0
0.34800000000000025;9817499999.0;9817542114.0;-42115.0;0.0;1.7437024269029497;-4.270602426851147;0.0;166.66666666666666;-166.66666666666666
0.35200000000000026;9817499999.0;9817547607.0;-47608.0;0.0;2.194497329823673;-5.050977329901979;0.0;0.0;0.0
0.35600000000000026;9817499999.0;9817569580.0;-69581.0;0.0;11.04653011328727;-15.221390113281878;0.0;83.33333333333333;-83.33333333333333
0.36000000000000026;9817499999.0;9817547607.0;-47608.0;0.0;-2.317177165955305;-0.5393028341230006;0.0;-83.33333333333333;83.33333333333333
0.36400000000000027;9817499999.0;9817558594.0;-58595.0;0.0;1.4473892361298204;-4.963089236136721;0.0;0.0;0.0
0.36800000000000027;9817499999.0;9817564087.0;-64088.0;0.0;-0.5127174560949207;-3.3325625439058326;0.0;83.33333333333333;-83.33333333333333
0.3720000000000003;9817499999.0;9817564087.0;-64088.0;0.0;-0.25711515291780235;-3.5881648470829512;0.0;-83.33333333333333;83.33333333333333
0.3760000000000003;9817499999.0;9817564087.0;-64088.0;0.0;3.3928760133460165;-7.23815601334677;0.0;-83.33333333333333;83.33333333333333
0.3800000000000003;9817499999.0;9817542114.0;-42115.0;0.0;-3.7942883524149655;1.2673883524667682;0.0;-166.66666666666666;166.66666666666666
0.3840000000000003;9817499999.0;9817542114.0;-42115.0;0.0;-0.8035884066894651;-1.7233115932587322;0.0;-166.66666666666666;166.66666666666666
0.3880000000000003;9817499999.0;9817542114.0;-42115.0;0.0;-0.9990766333416105;-1.527823366606587;0.0;83.33333333333333;-83.33333333333333
0.3920000000000003;9817499999.0;9817542114.0;-42115.0;0.0;1.1269933353960515;-3.653893335344249;0.0;-83.33333333333333;83.33333333333333
0.3960000000000003;9817499999.0;9817536621.0;-36622.0;0.0;1.5176522147804499;-3.714972214734794;0.0;166.66666666666666;-166.66666666666666
0.4000000000000003;9817499999.0;9817531128.0;-31129.0;0.0;2.7039635339677335;-4.571703533928224;0.0;-166.66666666666666;166.66666666666666
0.4040000000000003;9817499999.0;9817514648.0;-14649.0;0.0;0.5834680124744773;-1.4624080125125198;0.0;-83.33333333333333;83.33333333333333
0.4080000000000003;9817499999.0;9817503662.0;-3663.0;0.0;-1.7697272612303496;1.5499472611800136;0.0;0.0;0.0
0.4120000000000003;9817499999.0;9817509155.0;-9156.0;0.0;1.8065810665488244;-2.3559410665248866;0.0;166.66666666666666;-166.66666666666666
0.4160000000000003;9817499999.0;9817503662.0;-3663.0;0.0;2.3709820864498616;-2.590762086500198;0.0;166.66666666666666;-166.66666666666666
0.4200000000000003;9817499999.0;9817498169.0;1830.0;0.0;-0.1806302714124322;0.2904302714240769;0.0;0.0;0.0
0.4240000000000003;9817499999.0;9817492676.0;7323.0;0.0;-3.6798754068240522;4.11925540682955;0.0;0.0;0.0
0.4280000000000003;9817499999.0;9817503662.0;-3663.0;0.0;1.4501245367601514;-1.6699045368104874;0.0;0.0;0.0
0.43200000000000033;9817499999.0;9817514648.0;-14649.0;0.0;5.437882372505963;-6.316822372544006;0.0;0.0;0.0
0.43600000000000033;9817499999.0;9817514648.0;-14649.0;0.0;5.265449986167252;-6.144389986205295;0.0;0.0;0.0
0.44000000000000034;9817499999.0;9817520142.0;-20143.0;0.0;4.186302336543799;-5.39488233658471;0.0;83.33333333333333;-83.33333333333333
0.44400000000000034;9817499999.0;9817520142.0;-20143.0;0.0;2.6701373060122133;-3.878717306053125;0.0;83.33333333333333;-83.33333333333333
0.44800000000000034;9817499999.0;9817525635.0;-25636.0;0.0;0.5005330819860101;-2.0386930820207754;0.0;166.66666666666666;-166.66666666666666
0.45200000000000035;9817499999.0;9817542114.0;-42115.0;0.0;5.012167252786457;-7.539067252734655;0.0;0.0;0.0
0.45600000000000035;9817499999.0;9817531128.0;-31129.0;0.0;-3.652333526276052;1.7845935263155615;0.0;0.0;0.0
0.46000000000000035;9817499999.0;9817536621.0;-36622.0;0.0;-1.6586319254860282;-0.5386880744683158;0.0;-166.66666666666666;166.66666666666666
0.46400000000000036;9817499999.0;9817531128.0;-31129.0;0.0;-1.5539286894276738;-0.31381131053281686;0.0;-166.66666666666666;166.66666666666666
0.46800000000000036;9817499999.0;9817536621.0;-36622.0;0.0;-0.11110653077811003;-2.086213469176234;0.0;0.0;0.0
0.47200000000000036;9817499999.0;9817536621.0;-36622.0;0.0;1.007679857224226;-3.20499985717857;0.0;-83.33333333333333;83.33333333333333
0.47600000000000037;9817499999.0;9817531128.0;-31129.0;0.0;-0.09317899537831545;-1.7745610045821751;0.0;83.33333333333333;-83.33333333333333
0.48000000000000037;9817499999.0;9817520142.0;-20143.0;0.0;-1.7167306172475219;0.5081506172066104;0.0;-166.66666666666666;166.66666666666666
0.4840000000000004;9817499999.0;9817514648.0;-14649.0;0.0;-0.5346359527558089;-0.34430404728223374;0.0;0.0;0.0
0.4880000000000004;9817499999.0;9817503662.0;-3663.0;0.0;-0.9113344203755259;0.6915544203251898;0.0;-83.33333333333333;83.33333333333333
0.4920000000000004;9817499999.0;9817492676.0;7323.0;0.0;-3.5546310790628195;3.9940110790683176;0.0;0.0;0.0
0.4960000000000004;9817499999.0;9817492676.0;7323.0;0.0;0.21544865867495538;0.2239313413305426;0.0;-83.33333333333333;83.33333333333333
0.5000000000000003;9817499999.0;9817487183.0;12816.0;0.0;0.038055304750800135;0.7309046952485513;0.0;83.33333333333333;-83.33333333333333
0.5040000000000003;9817499999.0;9817487183.0;12816.0;0.0;-2.6269415305927395;3.395901530592091;0.0;166.66666666666666;-166.66666666666666
0.5080000000000003;9817499999.0;9817492676.0;7323.0;0.0;2.0360358026400207;-1.5966558026345228;0.0;83.33333333333333;-83.33333333333333
0.5120000000000003;9817499999.0;9817492676.0;7323.0;0.0;3.322822017990053;-2.883442017984555;0.0;0.0;0.0
0.5160000000000003;9817499999.0;9817492676.0;7323.0;0.0;4.25136479793489;-3.811984797929392;0.0;-83.33333333333333;83.33333333333333
0.5200000000000004;9817499999.0;9817487183.0;12816.0;0.0;-2.0254053910002114;2.794365390999563;0.0;166.66666666666666;-166.66666666666666
0.5240000000000004;9817499999.0;9817492676.0;7323.0;0.0;-0.7800256923660636;1.2194056923715615;0.0;0.0;0.0
0.5280000000000004;9817499999.0;9817514648.0;-14649.0;0.0;4.164030799664557;-5.0429707997026;0.0;166.66666666666666;-166.66666666666666
0.5320000000000004;9817499999.0;9817520142.0;-20143.0;0.0;3.848893284507096;-5.057473284548007;0.0;83.33333333333333;-83.33333333333333
0.5360000000000004;9817499999.0;9817520142.0;-20143.0;0.0;1.9751875724866987;-3.1837675725276102;0.0;83.33333333333333;-83.33333333333333
0.5400000000000004;9817499999.0;9817514648.0;-14649.0;0.0;-1.5411865741610526;0.66224657412301;0.0;-166.66666666666666;166.66666666666666
0.5440000000000004;9817499999.0;9817520142.0;-20143.0;0.0;-0.4081429904028773;-0.8004370096380342;0.0;-166.66666666666666;166.66666666666666
0.5480000000000004;9817499999.0;9817514648.0;-14649.0;0.0;-6.583972052641213;5.705032052603171;0.0;0.0;0.0
0.5520000000000004;9817499999.0;9817525635.0;-25636.0;0.0;-1.1151760458797217;-0.4229839541550433;0.0;0.0;0.0
0.5560000000000004;9817499999.0;9817520142.0;-20143.0;0.0;-1.1740902629941703;-0.03448973704674119;0.0;-83.33333333333333;83.33333333333333
0.5600000000000004;9817499999.0;9817520142.0;-20143.0;0.0;-0.5554643035680056;-0.6531156964729059;0.0;-83.33333333333333;83.33333333333333
0.5640000000000004;9817499999.0;9817525635.0;-25636.0;0.0;1.0937190245687962;-2.6318790246035615;0.0;0.0;0.0
0.5680000000000004;9817499999.0;9817509155.0;-9156.0;0.0;-1.3412085119336843;0.7918485119576224;0.0;-83.33333333333333;83.33333333333333
0.5720000000000004;9817499999.0;9817503662.0;-3663.0;0.0;-1.9841171614453197;1.7643371613949836;0.0;-83.33333333333333;83.33333333333333
0.5760000000000004;9817499999.0;9817487183.0;12816.0;0.0;-6.252979909971357;7.021939909970708;0.0;-166.66666666666666;166.66666666666666
0.5800000000000004;9817499999.0;9817481689.0;18310.0;0.0;-3.8442335908263923;4.942833590828612;0.0;0.0;0.0
0.5840000000000004;9817499999.0;9817487183.0;12816.0;0.0;-0.21105061616003515;0.9800106161593866;0.0;83.33333333333333;-83.33333333333333
0.5880000000000004;9817499999.0;9817487183.0;12816.0;0.0;-0.4164062095656991;1.1853662095650506;0.0;166.66666666666666;-166.66666666666666
