Zeit[sec];Sollposition[°];Istposition[°];Positionsschleppfehler[°];Sollgeschwindigkeit[°/s];Istgeschwindigkeit[°/s];Geschwindigkeitsdifferenz[°/s];Sollbeschleunigung[°/s*s];Istbeschleunigung[°/s*s];Beschleunigungsdifferenz[°/s*s]
0.0;0.0;5.0;-5.0;-0.0;-0.00021499999999999997;0.0;0.0;0.0;0.0
0.004;0.0;5.0;-5.0;-0.0;-0.00021499999999999997;0.0;0.0;0.0;0.0
0.008;0.0;5.0;-5.0;-0.0;-0.00021499999999999997;0.0;0.0;0.0;0.0
0.012;0.0;5.0;-5.0;-0.0;-0.00021499999999999997;0.0;0.0;0.0;0.0
0.016;0.0;5.0;-5.0;-0.0;-0.00021499999999999997;0.0;0.0;0.0;0.0
0.02;0.0;5.0;-5.0;-0.0;-0.00021499999999999997;0.0;0.0;0.0;0.0
0.024;0.0;5.0;-5.0;-0.0;-0.00021499999999999997;0.0;0.0;0.0;0.0
0.028;0.0;5.0;-5.0;-0.0;-0.00021499999999999997;0.0;0.0;0.0;0.0
0.032;0.0;5.0;-5.0;-0.0;-0.00021499999999999997;0.0;0.0;0.0;0.0
0.036000000000000004;0.0;5.0;-5.0;-0.0;-0.00021499999999999997;0.0;0.0;0.0;0.0
0.04000000000000001;0.0;5.0;-5.0;-0.0;-0.00021499999999999997;0.0;0.0;0.0;0.0
0.04400000000000001;0.0;5.0;-5.0;-0.0;-0.00021499999999999997;0.0;0.0;0.0;0.0
0.048000000000000015;0.0;5.0;-5.0;-0.0;-0.00021499999999999997;0.0;0.0;0.0;0.0
0.05200000000000002;0.0;5.0;-5.0;-0.0;-0.00021499999999999997;0.0;0.0;0.0;0.0
0.05600000000000002;0.0;5.0;-5.0;-0.0;-0.00021499999999999997;0.0;0.0;0.0;0.0
0.060000000000000026;0.0;5.0;-5.0;-0.0;-0.00021499999999999997;0.0;0.0;0.0;0.0
0.06400000000000003;0.0;5.0;-5.0;-0.0;-0.00021499999999999997;0.0;0.0;0.0;0.0
0.06800000000000003;0.0;5.0;-5.0;-0.0;-0.00021499999999999997;0.0;0.0;0.0;0.0
0.07200000000000004;0.0;5.0;-5.0;-0.0;-0.00021499999999999997;0.0;0.0;0.0;0.0
0.07600000000000004;0.0;5.0;-5.0;-0.0;-0.00021499999999999997;0.0;0.0;0.0;0.0
0.08000000000000004;5410.0;5.0;-5.0;1.352590583688154;-0.00021499999999999997;0.0;338.1476459220385;0.0;338.1476459220385
0.08400000000000005;59328.0;5.0;5405.0;13.47947529177451;-0.00021499999999999997;1.585220583688154;3031.721177021589;0.0;3031.721177021589
0.08800000000000005;324345.0;6345.0;52983.0;66.25435440869802;1.585005583688154;14.172738708086355;13193.719779230878;0.0;13193.719779230878
0.09200000000000005;1199718.0;69375.0;254970.0;218.84308393120793;15.75774429177451;61.460320116923505;38147.18238062748;0.0;38147.18238062748
0.09600000000000006;3416831.0;378247.0;821471.0;554.2783185847815;77.21806440869801;176.9482725225099;83858.80866339339;166.66666666666666;83692.14199672671
0.10000000000000006;8043185.0;1394912.0;2021919.0;1156.5883378188696;254.16633693120792;387.0544986535735;150577.50480852203;833.3333333333334;149744.1714751887
0.10400000000000006;16376174.0;3959795.0;4083390.0;2083.2472680017463;641.2208355847814;690.9532722340881;231664.73254571916;2500.0;229164.73254571916
0.10800000000000007;29807749.0;9288491.0;7087683.0;3357.8936966115066;1332.1741078188695;1055.8435291828766;318661.60715244006;5833.333333333333;312828.27381910675
0.11200000000000007;49753945.0;18840561.0;10967188.0;4986.548654488879;2388.017637001746;1441.4651436097602;407163.7394693431;11416.666666666666;395747.07280267647
0.11600000000000008;77635850.0;34158492.0;15595453.0;6970.475911102239;3829.4827806115063;1827.6703528773724;495981.8141533399;19666.666666666668;476315.1474866732
0.12000000000000008;114831666.0;56787104.0;20848746.0;9298.953660388268;5657.153133488879;2209.81885561336;582119.4373215074;30916.666666666668;551202.7706548406
0.12400000000000008;162581070.0;88254991.0;26576675.0;11937.350303756451;7866.971989102239;2574.778696286029;659599.1608420459;45166.666666666664;614432.4941753792
0.12800000000000009;221896110.0;130021993.0;32559077.0;14828.759342339355;10441.750685388268;2895.6399293681843;722852.2596457261;62416.666666666664;660435.5929790593
0.1320000000000001;293501871.0;183371555.0;38524555.0;17901.439388293777;13337.390614756452;3147.924592582902;768170.0114886053;82416.66666666667;685753.3448219385
0.1360000000000001;377795180.0;249312815.0;44189056.0;21073.32612958381;16485.315207339354;3316.2535889544233;792971.6853225082;104833.33333333333;688138.3519891748
0.1400000000000001;474839598.0;328519090.0;49276090.0;24261.103415970512;19801.568796293777;3390.629203290031;796944.3215966758;129250.0;667694.3215966758
0.1440000000000001;584403559.0;421287881.0;53551717.0;27390.988880249675;23192.19799958381;3371.6292473867034;782471.3660697908;154916.66666666666;627554.699403124
0.1480000000000001;706013354.0;527543189.0;56860370.0;30402.44744268872;26563.82724697051;3272.157543279165;752864.6406097615;181166.66666666666;571697.9739430947
0.1520000000000001;839002598.0;646887128.0;59126226.0;33247.30949519071;29835.984790249677;3108.890370439047;711215.5131254976;207250.0;503965.5131254976
0.1560000000000001;982543571.0;778666628.0;60335970.0;35885.24151312228;32944.87516068872;2896.8810445019844;659483.0044828923;232666.66666666666;426816.3378162256
0.16000000000000011;1135651966.0;922033652.0;60509919.0;38277.09685018491;35841.75620519071;2645.4118249315725;597963.834265658;256833.33333333334;341130.50093232474
0.16400000000000012;1297192875.0;1075982324.0;59669642.0;40385.22525275488;38487.16803012228;2355.7234260626283;527032.100642491;279416.6666666667;247615.4339758244
0.16800000000000012;1465920782.0;1239353889.0;57838986.0;42181.974807366714;40842.89145618491;2029.4101945699658;449187.38865295926;299916.6666666667;149270.72198629257
0.17200000000000013;1640546161.0;1410843095.0;55077687.0;43656.34271769004;42872.301650754875;1678.0136976118374;368591.97758083063;318250.0;50341.977580830644
0.17600000000000013;1819801497.0;1589044356.0;51501805.0;44813.83195145281;44550.31534836671;1320.6049843233268;289372.3084406938;334000.0;-44627.691559306186
0.18000000000000013;2002501998.0;1772528037.0;47273460.0;45675.122885026125;45870.92033269004;975.6703987627698;215322.73339332824;347083.3333333333;-131760.59994000508
0.18400000000000014;2187601716.0;1959914399.0;42587599.0;46274.927485984554;46846.59073145281;659.7989105733141;149951.15023960714;357416.6666666667;-207465.51642705954
0.18800000000000014;2374228483.0;2149939957.0;37661759.0;46656.689351339606;47506.38964202612;387.99348095843015;95440.46633876314;365166.6666666667;-269726.20032790356
0.19200000000000014;2561699742.0;2341517489.0;32710994.0;46867.81259875394;47894.38312298455;168.87897035505011;52780.811853583145;370500.0;-317719.18814641685
0.19600000000000015;2749534702.0;2533770537.0;27929205.0;46958.73793170252;48063.2620933396;5.506320414337097;22731.33323714501;373666.6666666667;-350935.33342952165
0.20000000000000015;2937448697.0;2726045610.0;23489092.0;46978.49628960813;48068.76841375394;-99.9995260514188;4939.589476402034;375083.3333333333;-370143.7438569313
0.20400000000000015;3125313838.0;2917920685.0;19528012.0;46966.28305122536;47968.76888770252;-150.56808209439623;-3053.3095956925536;375250.0;-378303.30959569255
0.20800000000000016;3313101165.0;3109193488.0;16120350.0;46946.829710116814;47818.200805608125;-158.74270438277017;-4863.335277135775;374583.3333333333;-379446.6686104691
0.21200000000000016;3500828111.0;3299831320.0;13269845.0;46931.734090259066;47659.458101225355;-142.02505610854132;-3773.9049644369516;373500.0;-377273.90496443695
0.21600000000000016;3688523131.0;3489901052.0;10927059.0;46923.75287948225;47517.43304511681;-115.83541785775014;-1995.3026942039287;372333.3333333333;-374328.6360275372
0.22000000000000017;3876208393.0;3679507442.0;9015689.0;46921.31326271396;47401.59762725906;-90.17012077681284;-609.9041920733725;371250.0;-371859.9041920734
0.22400000000000017;4063895469.0;3868753152.0;7455241.0;46921.76678752598;47311.42750648225;-69.53888076829026;113.38120300570154;370166.6666666667;-370053.28546366096
0.22800000000000017;4251587634.0;4057720706.0;6174763.0;46923.03894590252;47241.88862571396;-54.607029187980515;318.03959413446137;368833.3333333333;-368515.2937391988
0.23200000000000018;4439283863.0;4246469832.0;5117802.0;46924.05498581856;47187.28159652598;-44.177164623462886;254.00997901124356;366583.3333333333;-366329.32335432206
0.23600000000000018;4626981985.0;4435042249.0;4241614.0;46924.52840959859;47143.10443190252;-36.660044083953835;118.35594500735169;362916.6666666667;-362798.31072165933
0.24000000000000019;4814680312.0;4623468026.0;3513959.0;46924.57956482938;47106.44438781856;-30.81574121997255;12.788807696779259;356916.6666666667;-356903.8778589699
0.2440000000000002;5002378053.0;4811770540.0;2909772.0;46924.432819968846;47075.62864659859;-25.928885769208136;-36.68621513315884;348416.6666666667;-348453.35288179986
0.2480000000000002;5190074867.0;4999969339.0;2408714.0;46924.201382575586;47049.69976082938;-21.692238860538055;-57.85934831510531;336833.3333333333;-336891.1926816484
0.25200000000000017;5377769452.0;5188081369.0;1993498.0;46923.64387750738;47028.007521968844;-18.085725393255416;-139.37626705228467;322416.6666666667;-322556.042933719
0.25600000000000017;5565457448.0;5376121056.0;1648396.0;46921.996773476574;47009.92179657559;-15.396891068208788;-411.7760077006096;305000.0;-305411.7760077006
0.2600000000000002;5753124538.0;5564099155.0;1358293.0;46916.770281652476;46994.52490550738;-14.12153303080413;-1306.622956024512;284833.3333333333;-286139.95628935785
0.2640000000000002;5940722186.0;5752020768.0;1103770.0;46899.40992097786;46980.403372476576;-16.170980824099388;-4340.090168654569;262250.0;-266590.09016865457
0.2680000000000002;6128127023.0;5939877697.0;844489.0;46851.20690273685;46964.23239165248;-28.509443674622162;-12050.754560252244;237750.0;-249800.75456025224
0.2720000000000002;6315102107.0;6127620588.0;506435.0;46743.76882849019;46935.722947977854;-62.739340241008904;-26859.518561665027;212000.0;-238859.51856166503
0.2760000000000002;6501257399.0;6315112522.0;-10415.0;46538.82074692415;46872.983607736845;-129.6626242466591;-51237.02039150885;185500.0;-236737.02039150885
0.2800000000000002;6686003444.0;6502085805.0;-828406.0;46186.5091884692;46743.320983490186;-240.12169456603442;-88077.88961373808;158750.0;-246827.88961373808
0.2840000000000002;6868525859.0;6688098602.0;-2095158.0;45630.60144823766;46503.19928892415;-406.7818944549508;-138976.9350578845;132250.0;-271226.9350578845
0.2880000000000002;7047796182.0;6872484271.0;-3958412.0;44817.578578066365;46096.4173944692;-636.0276622315359;-203255.71754282463;106000.0;-309255.7175428246
0.2920000000000002;7222601539.0;7054325829.0;-6529647.0;43701.33730764181;45460.389732237665;-923.5859751712997;-279060.3176061395;80166.66666666667;-359226.9842728062
0.2960000000000002;7391587018.0;7232473044.0;-9871505.0;42246.367792636476;44536.803757066366;-1259.9411644245556;-363742.3787513326;54500.0;-418242.3787513326
0.3000000000000002;7553318307.0;7405580494.0;-13993476.0;40432.82034548378;43276.86259264181;-1632.2142680053366;-453386.8617881744;28833.333333333332;-482220.19512150774
0.3040000000000002;7706353372.0;7572159087.0;-18840780.0;38258.764295043424;41644.64832463647;-2021.981519152694;-543514.0126100887;3166.6666666666665;-546680.6792767553
0.3080000000000002;7849303971.0;7730649754.0;-24296382.0;35737.64813172397;39622.66680548378;-2408.646936440353;-630279.0408298642;-22833.333333333332;-607445.707496531
0.3120000000000002;7980893886.0;7879505833.0;-30201862.0;32897.47711227565;37214.019869043426;-2775.0518033194603;-710042.7548620792;-48916.666666666664;-661126.0881954125
0.3160000000000002;8100019658.0;8017261705.0;-36367819.0;29781.441520832035;34438.968065723966;-3105.3071704483154;-779008.8978609038;-75416.66666666667;-703592.231194237
0.32000000000000023;8205803585.0;8142596348.0;-42576690.0;26445.980699796888;31333.66089527565;-3383.0170444436153;-833865.2052587868;-102250.0;-731615.2052587868
0.32400000000000023;8297667603.0;8254398923.0;-48595338.0;22966.00324326598;27950.643850832035;-3594.262685035148;-869994.3641327273;-129500.0;-740494.3641327273
0.32800000000000024;8375441604.0;8351824447.0;-54156844.0;19443.499284993602;24356.381165796887;-3719.1222145309075;-880625.9895680941;-157250.0;-723375.9895680941
0.33200000000000024;8439432186.0;8434373482.0;-58931878.0;15997.644903510645;20637.25895126598;-3727.8304202723775;-861463.5953707393;-185250.0;-676213.5953707393
0.33600000000000024;8490403342.0;8502011196.0;-62579010.0;12742.788262415317;16909.428530993602;-3602.681057482956;-813714.160273832;-213416.66666666666;-600297.4936071654
0.34000000000000025;8529504445.0;8555238185.0;-64834843.0;9775.275317801515;13306.747473510646;-3351.857460095329;-741878.2361534504;-241166.66666666666;-500711.56948678376
0.34400000000000025;8558173123.0;8595057745.0;-65553300.0;7167.169134824233;9954.890013415317;-2998.406595613802;-652026.5457443206;-267750.0;-384276.5457443206
0.34800000000000025;8578021019.0;8622883678.0;-64710555.0;4961.97381791712;6956.483417801515;-2571.868147977282;-551298.8292267782;-292583.3333333333;-258715.49589344492
0.35200000000000026;8590740537.0;8640422139.0;-62401120.0;3179.8793535952373;4384.615269824233;-2105.889611907113;-445523.6160804707;-314916.6666666667;-130606.94941380399
0.35600000000000026;8598053939.0;8649537041.0;-58796504.0;1828.3504928484;2278.7256579171203;-1627.095976321883;-337882.2151867093;-334250.0;-3632.2151867092884
0.36000000000000026;8601640126.0;8652143559.0;-54089620.0;896.5466230626506;651.6296815952373;-1149.132848746837;-232950.96744643737;-350083.3333333333;117132.36588689595
0.36400000000000027;8602982835.0;8650153547.0;-48513421.0;335.6772163804732;-497.50316715159965;-692.0273127857492;-140217.35167054433;-362333.3333333333;222115.98166278898
0.36800000000000027;8603211603.0;8645395426.0;-42412591.0;57.19195018119958;-1189.530479937349;-298.53371668217756;-69621.31654981841;-371000.0;301378.68345018156
0.3720000000000003;8603043138.0;8639443170.0;-36231567.0;-42.11626245427223;-1488.0641966195265;-12.701234199273586;-24827.05315886795;-376333.3333333333;351506.2801744654
0.3760000000000003;8602838671.0;8633440109.0;-30396971.0;-51.116665307676094;-1500.7654308188;151.57941536452813;-2250.1007133509656;-378666.6666666667;376416.5659533157
0.3800000000000003;8602720862.0;8628043365.0;-25204694.0;-29.45217788625531;-1349.186015454272;214.2675081465959;5416.121855355196;-378916.6666666667;384332.7885220219
0.3840000000000003;8602690158.0;8623503691.0;-20782829.0;-7.676138550862781;-1134.918507307676;211.8046824214208;5444.009833848132;-377750.0;383194.0098338481
0.3880000000000003;8602707314.0;8619811236.0;-17121078.0;4.289030167234143;-923.1138248862552;179.2313323353925;2991.292179524231;-376166.6666666667;379157.95884619094
0.3920000000000003;8602736363.0;8616835707.0;-14128393.0;7.262390232109514;-743.8824925508627;140.650623718097;743.3400162188426;-374416.6666666667;375160.0066828855
0.3960000000000003;8602758070.0;8614422780.0;-11686417.0;5.426788359099205;-603.2318688327657;107.97832806487526;-458.90046825257724;-373000.0;372541.0995317474
0.4000000000000003;8602767786.0;8612441766.0;-9683696.0;2.428921562422582;-495.25354076789046;84.28140112698969;-749.4666991691556;-371666.6666666667;370917.19996749755
0.4040000000000003;8602768545.0;8610797878.0;-8030092.0;0.18972820969962034;-410.97213964090076;68.10710520332339;-559.7983381807404;-370500.0;369940.20166181924
0.4080000000000003;8602765213.0;8609426418.0;-6657873.0;-0.8329471658018869;-342.8650344375774;56.76622364727706;-255.6688438753768;-369250.0;368994.33115612465
0.4120000000000003;8602761430.0;8608282023.0;-5516810.0;-0.945882583605524;-286.0988107903003;48.04303362449846;-28.233854450909284;-367583.3333333333;367555.0994788824
0.4160000000000003;8602758880.0;8607329800.0;-4568370.0;-0.6373277281211517;-238.05577716580186;40.66998458219635;77.13871387109309;-365166.6666666667;365243.80538053776
0.4200000000000003;8602757787.0;8606540257.0;-3781377.0;-0.27325686573045715;-197.3857925836055;34.149253855484375;91.01771559767363;-361416.6666666667;361507.6843822644
0.4240000000000003;8602757687.0;8605887311.0;-3129524.0;-0.025102400052532312;-163.23653872812113;28.393749862390706;62.03861641948121;-356000.0;356062.0386164195
0.4280000000000003;8602752485.0;8605347940.0;-2590253.0;-1.3004917747114335;-134.84278886573043;23.4368074656779;-318.8473436647253;-348333.3333333333;348014.4859896686
0.43200000000000033;8602697744.0;8604902317.0;-2149832.0;-13.68530495467081;-111.40598140005253;17.662713625341098;-3096.2032949898444;-338166.6666666667;335070.46337167686
0.43600000000000033;8602427110.0;8604527344.0;-1829600.0;-67.65836753506447;-93.74326777471143;1.3851628200406196;-13493.265645098416;-325166.6666666667;311673.4010215683
0.44000000000000034;8601532481.0;8604157912.0;-1730802.0;-223.6572356455515;-92.35810495467081;-49.72474858039365;-38999.71702762176;-309333.3333333333;270333.61630571156
0.44400000000000034;8599266295.0;8603589581.0;-2057100.0;-566.5465272323024;-142.08285353506446;-170.02968211048702;-85722.32289668772;-290666.6666666667;204944.34376997896
0.44800000000000034;8594537322.0;8602341131.0;-3074836.0;-1182.2432330548586;-312.1125356455515;-386.6519395867509;-153924.17645563904;-269666.6666666667;115742.49021102765
0.45200000000000035;8586019110.0;8599546074.0;-5008752.0;-2129.552926381708;-698.7644752323024;-698.8550938225562;-236827.42333171234;-247083.33333333334;10255.910001621003
0.45600000000000035;8572288169.0;8593955596.0;-7936486.0;-3432.735132831097;-1397.6195690548586;-1073.2022553268491;-325795.55161234725;-224083.33333333334;-101712.2182790139
0.46000000000000035;8551895799.0;8584072309.0;-11784140.0;-5098.092303268055;-2470.8218243817078;-1468.631328449389;-416339.29260923946;-201833.33333333334;-214505.95927590612
0.46400000000000036;8523387372.0;8568314497.0;-16418698.0;-7127.106378813866;-3939.4531528310968;-1864.6431644369582;-507253.5188864529;-181583.33333333334;-325670.1855531195
0.46800000000000036;8485351182.0;8545098112.0;-21710740.0;-9509.047031181392;-5804.096317268055;-2256.5718815458113;-595485.1630918813;-164166.66666666666;-431318.49642521463
0.47200000000000036;8436516012.0;8512855440.0;-27504258.0;-12208.791898704492;-8060.668198813866;-2631.0619263675253;-674936.2168807752;-150916.66666666666;-524019.55021410855
0.47600000000000037;8375842874.0;8470088520.0;-33572508.0;-15168.28366738603;-10691.730125181391;-2960.679617523101;-739872.9421703842;-142500.0;-597372.9421703842
0.48000000000000037;8302589140.0;8415478882.0;-39636008.0;-18313.432584364757;-13652.409742704493;-3220.222268681535;-786287.2292446819;-139833.33333333334;-646453.8959113485
0.4840000000000004;8216356746.0;8347988354.0;-45399214.0;-21558.09752405657;-16872.632011386027;-3392.9667749787295;-811166.2349229536;-142750.0;-668416.2349229536
0.4880000000000004;8117102639.0;8266925959.0;-50569213.0;-24813.52553271225;-20265.598786364757;-3466.974896691816;-813857.0021639197;-151333.33333333334;-662523.6688305865
0.4920000000000004;8005103566.0;8171995665.0;-54893026.0;-27999.767132820492;-23732.573683056573;-3441.3519676556753;-796560.4000270605;-164833.33333333334;-631727.0666937272
0.4960000000000004;7880904992.0;8063299963.0;-58196397.0;-31049.641820854562;-27173.925650712248;-3328.2865531082425;-762468.6720085174;-182666.66666666666;-579802.0053418507
0.5000000000000003;7745269644.0;7941291115.0;-60386123.0;-33908.83541144001;-30502.21220382049;-3144.0329060340737;-714798.3976463629;-203750.0;-511048.3976463629
0.5040000000000003;7599135462.0;7806706135.0;-61436491.0;-36533.5439451823;-33646.245109854564;-2904.3594145854513;-656177.1334355708;-226916.66666666666;-429260.4667689041
0.5080000000000003;7443593914.0;7660503717.0;-61368255.0;-38885.38499884108;-36550.604524440016;-2621.774385742283;-587960.2634146959;-250916.66666666666;-337043.59674802923
0.5120000000000003;7279869508.0;7503814202.0;-60220288.0;-40931.09949102203;-39172.3789101823;-2302.4784726587823;-511428.6230452381;-274416.6666666667;-237011.95637857137
0.5160000000000003;7109271957.0;7337914773.0;-58045265.0;-42649.385778292446;-41474.85738284108;-1952.1885031809506;-429571.5718176034;-296333.3333333333;-133238.23848427008
