Zeit[sec];Sollposition[°];Istposition[°];Positionsschleppfehler[°];Sollgeschwindigkeit[°/s];Istgeschwindigkeit[°/s];Geschwindigkeitsdifferenz[°/s];Sollbeschleunigung[°/s*s];Istbeschleunigung[°/s*s];Beschleunigungsdifferenz[°/s*s]
0.0;-9979199999.0;-9979200439.0;440.0;0.0;0.21856827995181083;-0.19216827992705604;0.0;0.0;0.0
0.004;-9979199999.0;-9979200439.0;440.0;0.0;-1.6115947642996908;1.6379947643244457;0.0;83.33333333333333;-83.33333333333333
0.008;-9979199999.0;-9979205933.0;5934.0;0.0;-2.309233537144959;2.665273537161522;0.0;-83.33333333333333;83.33333333333333
0.012;-9979199999.0;-9979200439.0;440.0;0.0;0.48022743748873475;-0.45382743746397997;0.0;0.0;0.0
0.016;-9979199999.0;-9979205933.0;5934.0;0.0;-3.4766380820274354;3.8326780820439983;0.0;-83.33333333333333;83.33333333333333
0.02;-9979199999.0;-9979205933.0;5934.0;0.0;-3.3817294036969545;3.7377694037135174;0.0;83.33333333333333;-83.33333333333333
0.024;-9979199999.0;-9979205933.0;5934.0;0.0;-0.7106056438460946;1.0666456438626577;0.0;-83.33333333333333;83.33333333333333
0.028;-9979199999.0;-9979194946.0;-5053.0;0.0;3.3488384476974606;-3.6520184477500752;0.0;83.33333333333333;-83.33333333333333
0.032;-9979199999.0;-9979200439.0;440.0;0.0;0.8060413073003292;-0.7796413072755745;0.0;0.0;0.0
0.036000000000000004;-9979199999.0;-9979194946.0;-5053.0;0.0;3.6490050623044374;-3.952185062357052;0.0;83.33333333333333;-83.33333333333333
0.04000000000000001;-9979199999.0;-9979194946.0;-5053.0;0.0;1.0619749247133732;-1.365154924765988;0.0;0.0;0.0
0.04400000000000001;-9979199999.0;-9979205933.0;5934.0;0.0;-4.12341002150625;4.479450021522813;0.0;0.0;0.0
0.048000000000000015;-9979199482.0;-9979194946.0;-5053.0;0.1294033964545371;1.4293430453240872;-1.732523045376702;32.350849113634276;0.0;32.350849113634276
0.05200000000000002;-9979131509.0;-9979194946.0;-4847.0;16.9931774851797;1.7922110788226129;-2.031724654076079;4215.943522181291;-83.33333333333333;4299.276855514624
0.05600000000000002;-9978942445.0;-9979194946.0;22412.0;47.26606935147411;1.3086436363607645;6.850944466765046;7568.222966573602;0.0;7568.222966573602
0.060000000000000026;-9978519239.0;-9979178467.0;121521.0;105.80146735286533;7.351228065706789;28.837126854262447;14633.849500347806;83.33333333333333;14550.516167014472
0.06400000000000003;-9977773018.0;-9979101563.0;325806.0;186.5552326025756;23.12791572417319;66.71750409354934;20188.441312427563;833.3333333333334;19355.10797909423
0.06800000000000003;-9976689822.0;-9978909302.0;683449.0;270.79904420079896;54.70935748827458;123.7736751607691;21060.952899555843;2583.3333333333335;18477.61956622251
0.07200000000000004;-9975249237.0;-9978233643.0;885724.0;360.1461183555957;185.67557392757385;86.95128707085667;22336.76853869919;8250.0;14086.768538699189
0.07600000000000004;-9973324641.0;-9976706543.0;581545.0;481.1490200511209;384.25490234597027;-43.632055374385345;30250.725423881293;22500.0;7750.725423881292
0.08000000000000004;-9970753535.0;-9974948730.0;454125.0;642.7764101061024;435.1331853034571;-0.2873251085288189;40406.84751374538;32750.0;7656.847513745376
0.08400000000000005;-9967418295.0;-9972927246.0;610732.0;833.810061220425;518.5467748347372;62.619898568185135;47758.41277858066;30333.333333333332;17425.07944524733
0.08800000000000005;-9963269413.0;-9970164185.0;717956.0;1037.2203195415968;707.8265776331947;52.82201475030695;50852.56458029295;25833.333333333332;25019.231246959618
0.09200000000000005;-9958267006.0;-9966566162.0;773292.0;1250.601789877829;904.0710862853081;55.66614627475633;53345.36758405807;31666.666666666668;21678.700917391398
0.09600000000000006;-9952371221.0;-9962237549.0;927203.0;1473.9461631165664;1097.054779567413;79.20828189469057;55836.093309684315;43666.666666666664;12169.42664301765
0.10000000000000006;-9945592320.0;-9956848755.0;890026.0;1694.7251190316651;1357.9339738345816;33.371648223844886;55194.738978774694;52250.0;2944.7389787746943
0.10400000000000006;-9937965350.0;-9950630493.0;912456.0;1906.7424492184953;1559.0934634889215;55.82680753984232;53004.332546707534;54666.666666666664;-1662.3341199591337
0.10800000000000007;-9929518270.0;-9943516846.0;908781.0;2111.769830378687;1789.83580494079;42.18410604432211;51256.84529004792;56416.666666666664;-5159.821376618744
0.11200000000000007;-9920292293.0;-9935535278.0;874375.0;2306.494289763359;2008.798975224264;30.4538380273475;48681.11484616804;56000.0;-7318.885153831957
0.11600000000000008;-9910363068.0;-9926921997.0;1012189.0;2482.3061402604835;2160.577487720713;87.9275559229477;43952.9626242811;52000.0;-8047.037375718901
0.12000000000000008;-9899828063.0;-9917435303.0;1025735.0;2633.751016277183;2380.7152447697445;55.88883302641443;37861.21900417493;49416.666666666664;-11555.447662491737
0.12400000000000008;-9888783635.0;-9907459717.0;1215436.0;2761.1068197440245;2495.4033082805945;118.84437143278728;31838.950866710322;46416.666666666664;-14577.715799956344
0.12800000000000009;-9877335799.0;-9896890869.0;1380022.0;2861.959078081941;2635.2526167614533;130.90693333550462;25213.06458447907;40666.666666666664;-15453.602082187594
0.1320000000000001;-9865591151.0;-9885822144.0;1512685.0;2936.161772999115;2783.0997687474787;108.00827020013958;18550.67372929352;36333.333333333336;-17782.659604039814
0.1360000000000001;-9853626209.0;-9874379883.0;1633577.0;2991.2354527238895;2857.944517965302;130.85845803305938;13768.419931193648;31916.666666666668;-18148.246735473018
0.1400000000000001;-9841500683.0;-9862701416.0;1785362.0;3031.38131503573;2906.537196255863;158.14736881226872;10036.465577960143;26916.666666666668;-16880.201088706526
0.1440000000000001;-9829275654.0;-9850704346.0;1815612.0;3056.2570433291826;2999.307613426663;116.4590690825944;6218.932073363135;21416.666666666668;-15197.734593303532
0.1480000000000001;-9817004750.0;-9838602905.0;1878208.0;3067.7258235133954;3028.697155507736;125.0042474510301;2867.1950460532116;15583.333333333334;-12716.138287280122
0.1520000000000001;-9804724237.0;-9826424561.0;1942499.0;3070.1280826442826;3050.1670623212085;127.04135693078706;600.5647827217899;11750.0;-11149.43521727821
0.1560000000000001;-9792451752.0;-9814004517.0;1796900.0;3068.121127392316;3099.5970028665142;76.82807897315979;-501.73881299167533;10416.666666666666;-10918.40547965834
0.16000000000000011;-9780191377.0;-9801540527.0;1610183.0;3065.093528087237;3107.6601716199443;58.26908888847629;-756.8998262697733;8166.666666666667;-8923.56649293644
0.16400000000000012;-9767940332.0;-9789082031.0;1419418.0;3062.761106362819;3121.4575946681725;30.63997640944399;-583.1054311043999;6083.333333333333;-6666.438764437733
0.16800000000000012;-9755694131.0;-9776541138.0;1135272.0;3061.550277624341;3124.2473619626912;8.055457194534029;-302.7071846195213;4833.333333333333;-5136.040517952854
0.17200000000000013;-9743449271.0;-9764104614.0;947927.0;3061.2148249767224;3100.8444994330557;18.32581878774272;-83.86316190467369;583.3333333333334;-667.1964952380071
0.17600000000000013;-9731203940.0;-9751618652.0;707662.0;3061.332592621132;3136.5083054859415;-32.62421489513099;29.441911102367158;-833.3333333333334;862.7752444357005
0.18000000000000013;-9718957658.0;-9739193115.0;527180.0;3061.570308993495;3112.2439149296283;-19.34963137922159;59.42909309078459;-1000.0;1059.4290930907846
0.18400000000000014;-9706710635.0;-9726992798.0;572568.0;3061.75551509358;3054.129274372846;41.65095903081237;46.30152502124929;-3166.6666666666665;3212.968191687916
0.18800000000000014;-9694463259.0;-9714567261.0;393602.0;3061.8439751080214;3091.5006634609326;-6.2421960120677795;22.115003610338135;-1750.0;1772.1150036103381
0.19200000000000014;-9682215827.0;-9702185669.0;259168.0;3061.857878258593;3074.9192736013906;2.4203093138494296;3.475787642855721;-1250.0;1253.4757876428557
0.19600000000000015;-9669968482.0;-9689990845.0;311740.0;3061.836135463744;3056.843906382531;23.709462787076973;-5.435698712176418;-2250.0;2244.5643012878236
0.20000000000000015;-9657721247.0;-9677653198.0;221491.0;3061.808573924079;3075.8460745080934;-0.7074383916633451;-6.890384916232506;-416.6666666666667;409.7762817504342
0.20400000000000015;-9645474088.0;-9665370483.0;186078.0;3061.789499439819;3066.9375201529488;6.052494990162359;-4.768621065068146;-2416.6666666666665;2411.8980456015984
0.20800000000000016;-9633226962.0;-9652988892.0;51692.0;3061.7813439470638;3106.560304579586;-41.65761189708837;-2.038873188780599;1250.0;-1252.0388731887806
0.21200000000000016;-9620979838.0;-9640590820.0;-99234.0;3061.780823895143;3097.131855216436;-41.2995175373926;-0.13001298020753893;2916.6666666666665;-2916.796679646874
0.21600000000000016;-9608732703.0;-9628363037.0;-79891.0;3061.783651801193;3054.155205336571;2.832520204221055;0.7069765125606864;0.0;0.7069765125606864
0.22000000000000017;-9596485555.0;-9615975952.0;-219848.0;3061.786812925536;3078.7850122066884;-30.193944043771353;0.7902810857558507;666.6666666666666;-665.8763855809108
0.22400000000000017;-9584238399.0;-9603731689.0;-216971.0;3061.788976337454;3053.136645738669;-4.370017170705978;0.5408529794976857;-2666.6666666666665;2667.207519646164
0.22800000000000017;-9571991238.0;-9591476440.0;-225069.0;3061.790000892747;3082.7760640975685;-34.49255193527415;0.25613882314701186;-2500.0;2500.256138823147
0.23200000000000018;-9559744077.0;-9579100342.0;-354009.0;3061.7902737695526;3094.5187935607732;-53.96996367937891;0.06821920146649063;750.0;-749.9317807985335
0.23600000000000018;-9547496915.0;-9566960449.0;-246741.0;3061.7902409236126;3021.5304625078666;25.45518057309482;-0.008211485010178876;-166.66666666666666;166.65845518165648
0.24000000000000019;-9535249754.0;-9554694214.0;-265814.0;3061.7901974547867;3063.636086922452;-17.794667774633126;-0.010867206469811208;-750.0;749.9891327935302
0.2440000000000002;-9523002592.0;-9542460938.0;-251929.0;3061.790263240443;3063.7975601371154;-17.123076255813885;0.016446414065285353;-2166.6666666666665;2166.683113080732
0.2480000000000002;-9510755430.0;-9530326538.0;-139167.0;3061.790441765854;3041.250979494706;12.18922429783197;0.04463135280730057;-2416.6666666666665;2416.711298019474
0.25200000000000017;-9498508266.0;-9517966919.0;-251624.0;3061.790688989732;3082.7183438882903;-36.02545025082054;0.061805969494344026;2166.6666666666665;-2166.604860697172
0.25600000000000017;-9486261102.0;-9505717163.0;-254218.0;3061.790959261024;3066.4982173957974;-19.960758655630343;0.06756782295269659;833.3333333333334;-833.2657655103807
0.2600000000000002;-9474013936.0;-9493505859.0;-218358.0;3061.79122419952;3068.9213043297304;-20.231989630198314;0.06623462400057178;500.0;-499.9337653759994
0.2640000000000002;-9461766770.0;-9481294556.0;-182496.0;3061.7914734050896;3046.026217279233;4.815085442085547;0.06230139240415156;83.33333333333333;-83.27103194092918
0.2680000000000002;-9449519603.0;-9469264526.0;34640.0;3061.79170771623;3003.548695124887;60.321026328338576;0.05857778512563527;-3750.0;3750.0585777851256
0.2720000000000002;-9437272434.0;-9457031250.0;48531.0;3061.7919321246804;3059.8135130333976;4.889911812103037;0.05610211258044728;-2166.6666666666665;2166.722768779247
0.2760000000000002;-9425025265.0;-9444721069.0;-14483.0;3061.792151348646;3075.865302937977;-14.942487620185602;0.05480599133989017;583.3333333333334;-583.2785273419935
0.2800000000000002;-9412778095.0;-9432493286.0;4903.0;3061.7923681612824;3059.3064245841506;2.779773144588944;0.054203159152166336;3416.6666666666665;-3416.6124635075143
0.2840000000000002;-9400530924.0;-9420210571.0;-30642.0;3061.7925835038086;3060.0045831401126;-0.05086711317608206;0.05383563154737203;3416.6666666666665;-3416.612831035119
0.2880000000000002;-9388283752.0;-9408010254.0;16211.0;3061.7927972403213;3051.662807572387;11.10230469841963;0.05343412817637727;-1583.3333333333333;1583.3867674615096
0.2920000000000002;-9376036580.0;-9395809937.0;63065.0;3061.7930088811695;3062.608430403657;2.968136581494946;0.05291021204811841;-2000.0;2000.0529102120481
0.2960000000000002;-9363789406.0;-9383620605.0;120905.0;3061.793218007104;3037.220216355689;31.826963544606315;0.05228148359037732;-333.3333333333333;333.3856148169237
0.3000000000000002;-9351542232.0;-9371508179.0;255652.0;3061.7934244132607;3017.7609664514957;59.37124410474644;0.05160153921224264;-1500.0;1500.0516015392122
0.3040000000000002;-9339295057.0;-9359291382.0;286029.0;3061.793628082616;3071.54155827266;7.4134803460192416;0.05091733885365102;-1833.3333333333333;1833.384250672187
0.3080000000000002;-9327047881.0;-9347113037.0;354859.0;3061.7938290904804;3049.374480077602;33.710563878069934;0.05025196605856763;-166.66666666666666;166.71691863272522
0.3120000000000002;-9314800704.0;-9335033569.0;522566.0;3061.794027552845;3023.6361946044713;69.51147198124409;0.049615591137808224;-166.66666666666666;166.71628225780447
0.3160000000000002;-9302553527.0;-9322750854.0;487027.0;3061.7942235672367;3066.958865770057;24.05666082981452;0.049003597951013944;1666.6666666666667;-1666.6176630687157
0.32000000000000023;-9290306349.0;-9310506592.0;489942.0;3061.794417209254;3060.4182529821173;30.772371124476194;0.04841050429149618;583.3333333333334;-583.2849228290419
0.32400000000000023;-9278059170.0;-9298289795.0;520323.0;3061.7946085371805;3065.97991782257;27.033761372269055;0.04783198164659552;1583.3333333333333;-1583.2855013516867
0.32800000000000024;-9265811990.0;-9285913696.0;391402.0;3061.7947976000696;3083.1690687572286;2.1095431759922576;0.04726572228719306;3416.6666666666665;-3416.6194009443793
0.33200000000000024;-9253564809.0;-9273669434.0;394320.0;3061.7949844406235;3055.124604551047;30.329277825584086;0.046710138462913164;916.6666666666666;-916.6199565282037
0.33600000000000024;-9241317628.0;-9261381226.0;353292.0;3061.795169108761;3081.8092773595677;1.1831132121160408;0.04616703438387049;-83.33333333333333;83.3795003677172
0.34000000000000025;-9229070446.0;-9249027100.0;246347.0;3061.7953516532443;3090.2642571710944;-13.688380607231466;0.04563612083074986;500.0;-499.95436387916925
0.34400000000000025;-9216823263.0;-9236810303.0;276731.0;3061.7955321274544;3064.1371752660943;14.2619251367787;0.04511855252076202;-750.0;750.0451185525208
0.34800000000000025;-9204576080.0;-9224417725.0;131336.0;3061.795710580731;3091.0819221621978;-21.406340023370376;0.044613319118980144;2250.0;-2249.955386680881
0.35200000000000026;-9192328896.0;-9212096558.0;57352.0;3061.7958870618368;3065.431766404949;-0.19504458090978005;0.04412027647049399;500.0;-499.9558797235295
0.35600000000000026;-9180081711.0;-9199918213.0;126190.0;3061.7960616313662;3065.0501598145665;4.317019692664871;0.04364238236576057;-2083.3333333333335;2083.3769757156992
0.36000000000000026;-9167834525.0;-9187608032.0;63194.0;3061.7962343305794;3075.9850186386257;-10.397423396796967;0.0431748032951873;-583.3333333333334;583.3765081366286
0.36400000000000027;-9155587339.0;-9175391235.0;93582.0;3061.796405220648;3044.0373371682913;23.37371191279044;0.042722517150650674;-2166.6666666666665;2166.709389183817
0.36800000000000027;-9143340152.0;-9163009644.0;-40823.0;3061.7965743439863;3099.5565254032017;-40.209604329227204;0.04228083457746834;1666.6666666666667;-1666.6243858320893
0.3720000000000003;-9131092965.0;-9150682983.0;-120298.0;3061.7967417548402;3087.2858390014844;-32.70724772736094;0.04185271347978414;1750.0;-1749.9581472865202
0.3760000000000003;-9118845777.0;-9138449707.0;-106387.0;3061.796907504281;3061.268632265389;-5.855212536531326;0.04143736020978395;250.0;-249.95856263979022
0.3800000000000003;-9106598588.0;-9126062622.0;-246284.0;3061.797071637899;3086.9055237866564;-39.885757295710846;0.04103340450001269;1250.0;-1249.9589665955
0.3840000000000003;-9094351398.0;-9113840332.0;-221386.0;3061.7972342113812;3058.932660596855;-10.418848987296315;0.040643370539328316;-1750.0;1750.0406433705393
0.3880000000000003;-9082104208.0;-9101656494.0;-158034.0;3061.797395272915;3065.5854704676717;-13.270375333640459;0.04026538340440311;-2666.6666666666665;2666.706932050071
0.3920000000000003;-9069857017.0;-9089329834.0;-237504.0;3061.797554868089;3073.172699989155;-25.625642871878426;0.039898793488646334;-83.33333333333333;83.37323212682197
0.3960000000000003;-9057609826.0;-9077118530.0;-201618.0;3061.797713053456;3045.30861285992;4.391764746362242;0.039546341781715455;-333.3333333333333;333.37287967511503
0.4000000000000003;-9045362634.0;-9064802856.0;-270101.0;3061.797869874607;3086.7017096144855;-41.110152963386554;0.03920528774870036;1083.3333333333333;-1083.2941280455846
0.4040000000000003;-9033115441.0;-9052514648.0;-311118.0;3061.798025379439;3072.4505630916133;-29.31986878787393;0.038876208009241964;333.3333333333333;-333.2944571253241
0.4080000000000003;-9020868248.0;-9040352783.0;-225790.0;3061.7981796184463;3045.845023919702;2.405506691343817;0.0385597518288705;-1083.3333333333333;1083.3718930851621
0.4120000000000003;-9008621054.0;-9028020630.0;-310750.0;3061.7983326389494;3067.5658987352776;-24.41281311367584;0.038255125787145516;1166.6666666666667;-1166.6284115408796
0.4160000000000003;-8996373859.0;-9015721436.0;-362751.0;3061.7984844911543;3068.747513891801;-28.714334506830255;0.03796305122705235;-583.3333333333334;583.3712963845604
0.4200000000000003;-8984126664.0;-9003482666.0;-354326.0;3061.7986352203625;3080.5549110963866;-40.01607914695251;0.03768230203604617;83.33333333333333;-83.29565103129728
0.4240000000000003;-8971879468.0;-8991101074.0;-488723.0;3061.798784877645;3090.8336077626495;-58.358444399389555;0.03741432067272399;1750.0;-1749.9625856793273
0.4280000000000003;-8959632272.0;-8978834839.0;-507763.0;3061.798933507724;3060.381477689788;-29.048564015818556;0.037157519727770705;750.0;-749.9628424802722
0.43200000000000033;-8947385075.0;-8966552124.0;-543282.0;3061.799081157346;3084.671448876508;-55.469525946206886;0.03691240544867469;-166.66666666666666;166.70357907211533
0.43600000000000033;-8935137878.0;-8954291382.0;-556828.0;3061.7992278793117;3067.745106437534;-39.35579525995581;0.03668049146199337;-1000.0;1000.036680491462
0.44000000000000034;-8922890680.0;-8942135010.0;-466003.0;3061.799373714017;3039.0970768073275;-5.25811834211072;0.03645867627710686;-2500.0;2500.036458676277
0.44400000000000034;-8910643481.0;-8929824829.0;-528986.0;3061.799518711091;3070.1429026319756;-40.08277779116088;0.036249268532628776;0.0;0.036249268532628776
0.44800000000000034;-8898396282.0;-8917613525.0;-493092.0;3061.7996629132376;3046.736661726743;-14.522751378123758;0.03605053666433378;-583.3333333333334;583.3693838699977
0.45200000000000035;-8886149082.0;-8905534058.0;-325360.0;3061.7998063741256;3037.361615194395;4.916359840997302;0.035865222002939845;-2500.0;2500.035865222003
0.45600000000000035;-8873901882.0;-8893394165.0;-218054.0;3061.7999491321298;3021.7838638764024;26.932615071822966;0.03568950103272073;-1083.3333333333333;1083.369022834366
0.46000000000000035;-8861654681.0;-8881441040.0;76021.0;3061.8000912331286;2981.954878771998;84.40624336293467;0.03552524970018567;-4916.666666666667;4916.702191916367
0.46400000000000036;-8849407479.0;-8869345093.0;227275.0;3061.800232726174;3040.5471151707548;34.88938946573444;0.03537326131208829;-3083.3333333333335;3083.3687065946456
0.46800000000000036;-8837160277.0;-8857095337.0;224720.0;3061.800373652816;3057.5431744678244;17.74017203245785;0.035231660490353534;1333.3333333333333;-1333.298101672843
0.47200000000000036;-8824913074.0;-8845065308.0;441893.0;3061.800514058354;3006.0563261870816;82.2575415852134;0.03510138458295842;2333.3333333333335;-2333.2982319487505
0.47600000000000037;-8812665871.0;-8832832031.0;455819.0;3061.800653989245;3054.2588469976636;34.89072149803269;0.034982722695531265;3250.0;-3249.9650172773045
0.48000000000000037;-8800418668.0;-8820659180.0;530171.0;3061.80079348444;3044.998596403979;48.612232312138076;0.034873798767875996;-500.0;500.0348737987679
0.4840000000000004;-8788171463.0;-8808502808.0;621002.0;3061.8009325903945;3054.0241373088884;45.03669116819901;0.03477648863281502;-250.0;250.03477648863282
