Zeit[sec];Sollposition[°];Istposition[°];Positionsschleppfehler[°];Sollgeschwindigkeit[°/s];Istgeschwindigkeit[°/s];Geschwindigkeitsdifferenz[°/s];Sollbeschleunigung[°/s*s];Istbeschleunigung[°/s*s];Beschleunigungsdifferenz[°/s*s]
0.0;-662.0;7064209.0;-7063586.0;-0.1149699459567973;-42.49838255592806;-636.0819834909167;55.55218429579704;1000.0;-944.447815704203
0.004;-589.0;6866455.0;-6866832.0;0.018325191674382093;-47.22418744761527;-612.2421080567932;33.32378440779485;3250.0;-3216.676215592205
0.008;-331.0;6679688.0;-6680317.0;0.06440284495830009;-47.41380240761234;-593.9600521033296;11.519413320979499;2500.0;-2488.4805866790207
0.012;-100.0;6454468.0;-6454954.0;0.057766682161275944;-58.037012396794815;-561.6027583681642;-1.6590406992560374;-416.6666666666667;415.00762596741066
0.016;29.0;6179810.0;-6180050.0;0.03268560482175735;-65.5295796771301;-527.6937185990203;-6.270269334879648;-1583.3333333333333;1577.0630639984536
0.02;69.0;5899658.0;-5899707.0;0.01000956862285425;-69.90202429616097;-496.42198639318457;-5.669009049725775;-1750.0;1744.3309909502743
0.024;58.0;5592041.0;-5591997.0;-0.002884771507286536;-75.32334783247414;-461.4845222973063;-3.2235850325351967;-2000.0;1996.776414967465
0.028;30.0;5284424.0;-5284360.0;-0.0068679832166134965;-72.90375544513132;-434.3897745232338;-0.9958029273317401;-1166.6666666666667;1165.670863739335
0.032;7.0;5026245.0;-5026199.0;-0.005758632874625742;-64.83693311582593;-417.6825593841122;0.2773375854969386;0.0;0.2773375854969386
0.036000000000000004;-4.0;4768066.0;-4768046.0;-0.0030611250447879724;-63.43994640885838;-394.29887439515016;0.6743769574594425;750.0;-749.3256230425405
0.04000000000000001;-7.0;4542847.0;-4542845.0;-0.0007882417945300166;-55.76637329085514;-380.3514423224133;0.568220812564489;1583.3333333333333;-1582.7651125207688
0.04400000000000001;-5.0;4328613.0;-4328618.0;0.0004260386047553676;-54.254530107885;-361.29497366017483;0.30357009982134603;1166.6666666666667;-1166.3630965668453
0.048000000000000015;-511.0;4125366.0;-4125371.0;-0.12647657084963687;-50.66283095511795;-345.37310516114667;-31.72565236359806;1083.3333333333333;-1115.0589856969314
0.05200000000000002;-51641.0;3938599.0;-3938805.0;-12.782537517107592;-45.45773478559618;-332.7174411925186;-3164.0152365644885;833.3333333333334;-3997.348569897822
0.05600000000000002;-216212.0;3740845.0;-3761625.0;-41.14262900343066;-51.31933009622403;-314.94033331888744;-7090.022871580768;666.6666666666666;-7756.689538247434
0.060000000000000026;-623515.0;3449707.0;-3566298.0;-101.82576276955746;-79.10280883707973;-287.2145132208184;-15170.7834415317;-416.6666666666667;-14754.116774865031
0.06400000000000003;-1375091.0;2905884.0;-3282621.0;-187.89404701563873;-141.5492378987769;-238.6187490579052;-21517.07106152032;-4500.0;-17017.07106152032
0.06800000000000003;-2481061.0;2021484.0;-2940600.0;-276.4925131596874;-225.76981284673477;-192.1227145725417;-22149.616536012167;-11083.333333333334;-11066.283202678835
0.07200000000000004;-3949227.0;719604.0;-2528791.0;-367.04144305537517;-329.0804132837849;-136.20117085393127;-22637.23247392194;-18083.333333333332;-4553.899140588609
0.07600000000000004;-5873958.0;-862427.0;-2194259.0;-481.182558461819;-401.8075606280553;-120.71592077067987;-28535.278851610954;-21583.333333333332;-6951.945518277622
0.08000000000000004;-8416314.0;-2889404.0;-1814346.0;-635.5890811946156;-515.4605070444815;-70.48276067851293;-38601.630683199146;-22333.333333333332;-16268.297349865816
0.08400000000000005;-11723705.0;-5427246.0;-1443439.0;-826.8478224398098;-636.7517387013711;-43.55194182399953;-47814.68531129855;-25166.666666666668;-22648.01864463188
0.08800000000000005;-15902708.0;-8453979.0;-1258767.0;-1044.7507171160141;-769.7252712840968;-61.631818677268825;-54475.72366905109;-27333.333333333332;-27142.39033571776
0.09200000000000005;-21035624.0;-12354126.0;-1007109.0;-1283.2289354821362;-986.1544289252029;-22.650293834009062;-59619.55459153052;-34916.666666666664;-24702.88792486385
0.09600000000000006;-27199518.0;-17083740.0;-829603.0;-1540.9732072773593;-1191.2548867817945;-26.413830920731925;-64436.06794880577;-42083.333333333336;-22352.734615472436
0.10000000000000006;-34456759.0;-22686768.0;-762668.0;-1814.310318831993;-1416.4776456595362;-40.761661024420164;-68334.27788865844;-50083.333333333336;-18250.944555325113
0.10400000000000006;-42852656.0;-29525757.0;-515027.0;-2098.9740982485478;-1725.7102070438925;28.43073427003901;-71165.94485413867;-57250.0;-13915.944854138672
0.10800000000000007;-52429614.0;-37391968.0;-351110.0;-2394.239323579423;-1966.4818600198469;7.201825158758538;-73816.3063327188;-64500.0;-9316.306332718796
0.11200000000000007;-63229515.0;-46373291.0;-227284.0;-2699.9752890008767;-2267.198025901132;31.004567160557144;-76433.99135536344;-66916.66666666667;-9517.324688696775
0.11600000000000008;-75285263.0;-56524658.0;-130833.0;-3013.9367938060664;-2526.398543695859;0.10978863096352143;-78490.3762012974;-71833.33333333333;-6657.04286796408
0.12000000000000008;-88615433.0;-67708740.0;-237410.0;-3332.5421822829076;-2816.411099194048;-29.044959141182062;-79651.3471192103;-66583.33333333333;-13068.01378587697
0.12400000000000008;-103225399.0;-80018921.0;-480907.0;-3652.4915583170327;-3104.6158757447156;-79.97043019100511;-79987.34400853129;-70166.66666666667;-9820.677341864623
0.12800000000000009;-119111894.0;-93663940.0;-666010.0;-3971.6234284350744;-3431.77359396592;-89.6936482574124;-79782.96752951041;-69833.33333333333;-9949.634196177087
0.1320000000000001;-136267795.0;-108698730.0;-739811.0;-4288.975064369947;-3768.316650358797;-79.85286064936736;-79337.9089837182;-78166.66666666667;-1171.2423170515221
0.1360000000000001;-154685670.0;-125123291.0;-697565.0;-4604.468425092465;-4119.495825866118;-43.04889429634568;-78873.34018062938;-83250.0;4376.659819370616
0.1400000000000001;-174359347.0;-142937622.0;-532050.0;-4918.419188171109;-4449.443302046518;-13.837268024341938;-78487.69076966119;-86916.66666666667;8428.975897005486
0.1440000000000001;-195284063.0;-161553955.0;-824103.0;-5231.178570651704;-4680.9348707781755;-125.27542048381474;-78189.84562014861;-79750.0;1560.154379851383
0.1480000000000001;-217456174.0;-181576538.0;-963856.0;-5543.027644939969;-5017.442835128912;-115.6711820779883;-77962.26857206626;-74666.66666666667;-3295.6019053995788
0.1520000000000001;-240872688.0;-202780151.0;-1172202.0;-5854.128242648084;-5326.93621699122;-138.5844564672716;-77775.14942702874;-71333.33333333333;-6441.816093695408
0.1560000000000001;-265530848.0;-225368042.0;-1242499.0;-6164.539658362982;-5654.96795250486;-128.85888180987786;-77602.85392872448;-78333.33333333333;730.4794046088573
0.16000000000000011;-291428067.0;-249241333.0;-1270724.0;-6474.304479376042;-5972.0065318866455;-125.36163584933183;-77441.20525326503;-81833.33333333333;4392.1280800683035
0.16400000000000012;-318561873.0;-274411011.0;-1243198.0;-6783.451153682045;-6325.652386073589;-79.23237485678692;-77286.66857650068;-80666.66666666667;3379.9980901659837
0.16800000000000012;-346929855.0;-300871582.0;-1162874.0;-7091.995088018177;-6632.406204787758;-74.29097628570798;-77135.98358403306;-81416.66666666667;4280.683082633615
0.17200000000000013;-376529805.0;-328408813.0;-1241534.0;-7399.987088911764;-6889.509255800001;-133.65060455258572;-76998.00022339672;-79666.66666666667;2668.6664432699417
0.17600000000000013;-407359724.0;-356786499.0;-1713055.0;-7707.4795798483765;-7123.126845122848;-253.6276642593748;-76873.12273415318;-71250.0;-5623.122734153185
0.18000000000000013;-439417747.0;-386812134.0;-1767815.0;-8014.505290798472;-7504.888921168439;-184.91973519928342;-76756.42773752383;-70500.0;-6256.427737523836
0.18400000000000014;-472702232.0;-418260498.0;-1629087.0;-8321.120910929367;-7847.100843950407;-136.70027119886163;-76653.90503272373;-77500.0;846.0949672762581
0.18800000000000014;-507211752.0;-450681152.0;-1745533.0;-8627.37941209273;-8096.219912118042;-205.62587041816732;-76564.62529084092;-84666.66666666667;8102.041375825749
0.19200000000000014;-542944955.0;-484584961.0;-1604730.0;-8933.300450325716;-8491.148829037931;-103.65629641441774;-76480.25955824641;-80250.0;3769.7404417535836
0.19600000000000015;-579900582.0;-519834595.0;-1342609.0;-9238.906227816731;-8778.093319716772;-97.67498461385549;-76401.44437275376;-81666.66666666667;5265.222293912913
0.20000000000000015;-618077487.0;-555562134.0;-1825775.0;-9544.225814987918;-8952.486371742147;-275.4638881850842;-76329.89679279672;-72250.0;-4079.896792796717
0.20400000000000015;-657474578.0;-593179321.0;-1641270.0;-9849.272268336847;-9434.244520916913;-81.4874137421557;-76261.61333723212;-72500.0;-3761.61333723212
0.20800000000000016;-698090766.0;-631994019.0;-1480106.0;-10154.046598876672;-9684.809423059154;-120.66373837469109;-76193.58263495633;-76750.0;556.4173650436715
0.21200000000000016;-739924993.0;-671775513.0;-1571906.0;-10458.556184739551;-9990.568364034267;-128.65775870011748;-76127.39646571981;-77916.66666666667;1789.2702009468594
0.21600000000000016;-782975430.0;-712727051.0;-1712347.0;-10762.608856018993;-10239.515011879219;-197.8644047367834;-76013.16781986042;-80916.66666666667;4903.498846806244
0.22000000000000017;-827238171.0;-754766235.0;-1982461.0;-11065.68477524347;-10539.15571625649;-228.4846219676947;-75768.9798061192;-63833.333333333336;-11935.64647278587
0.22400000000000017;-872707922.0;-798480835.0;-1791832.0;-11367.437043678006;-10944.191191241815;-108.81684456766925;-75438.06710863419;-77500.0;2061.9328913658137
0.22800000000000017;-919378470.0;-843261108.0;-1745757.0;-11667.636615662554;-11213.50733367571;-137.63433765866284;-75049.8929961368;-79583.33333333333;4533.440337196524
0.23200000000000018;-967240839.0;-889557495.0;-1388146.0;-11965.591512349596;-11546.69973122865;-71.25568842504799;-74488.72417176062;-87000.0;12511.275828239377
0.23600000000000018;-1016283723.0;-936397705.0;-1683986.0;-12260.720351131404;-11736.216590565764;-209.45816022084728;-73782.20969545191;-75583.33333333333;1801.1236378814174
0.24000000000000019;-1066488501.0;-984825439.0;-1579694.0;-12551.19409957848;-12128.80058471197;-103.70969535372387;-72618.43711176925;-69250.0;-3368.4371117692535
0.2440000000000002;-1117817929.0;-1034351807.0;-1549965.0;-12832.356294286992;-12405.423484497484;-117.53253870113076;-70290.54867712784;-70083.33333333333;-207.21534379451623
0.2480000000000002;-1170221661.0;-1084718628.0;-1827021.0;-13100.932384128086;-12599.009399669994;-237.3531383313275;-67144.0224602734;-72833.33333333333;5689.310873059938
0.25200000000000017;-1223643494.0;-1136101685.0;-2192747.0;-13355.457574410839;-12885.725555840658;-261.9732388323064;-63631.29757068827;-66666.66666666667;3035.369095978396
0.25600000000000017;-1278010019.0;-1189022827.0;-2072703.0;-13591.630779166027;-13251.80569559158;-147.4477495011106;-59043.30118879716;-66583.33333333333;7540.03214453617
0.2600000000000002;-1333231768.0;-1243201904.0;-1684049.0;-13805.436364189078;-13553.042661854557;-56.231243498561525;-53451.39625576258;-74416.66666666667;20965.270410904097
0.2640000000000002;-1389220735.0;-1297842407.0;-1743619.0;-13997.241239858438;-13688.014035529262;-154.39091401453152;-47951.21891734016;-75750.0;27798.781082659843
0.2680000000000002;-1445895153.0;-1353345337.0;-1761617.0;-14168.60385794069;-13877.879525999206;-171.46693934184805;-42840.654520563025;-60416.666666666664;17576.012146103643
0.2720000000000002;-1503169590.0;-1409644775.0;-1718421.0;-14318.608432966263;-14091.970899272312;-137.05750042143336;-37501.14375639305;-47833.333333333336;10332.189576940287
0.2760000000000002;-1560953148.0;-1465999146.0;-2272350.0;-14445.888867269532;-14071.961810180957;-373.25804009554486;-31820.108575817358;-41833.333333333336;10013.224757515978
0.2800000000000002;-1619159996.0;-1523067627.0;-2676648.0;-14551.711257880763;-14291.104639518555;-334.04777183537954;-26455.597652807683;-30750.0;4294.402347192317
0.2840000000000002;-1677658891.0;-1581300659.0;-2392019.0;-14624.723084652574;-14568.093957495073;-148.6398743821719;-18252.95669295292;-37416.666666666664;19163.709973713743
0.2880000000000002;-1736431761.0;-1639720459.0;-2292379.0;-14693.216937820356;-14587.734455083199;-212.37318223280636;-17123.463291945427;-41750.0;24626.536708054573
0.2920000000000002;-1795432418.0;-1698359985.0;-2258664.0;-14750.163503905731;-14660.04650616061;-208.23726138400707;-14236.6415213437;-39416.666666666664;25180.025145322965
0.2960000000000002;-1854590482.0;-1757202759.0;-2277468.0;-14789.515190612128;-14721.721646250498;-212.3093120616868;-9837.921676599308;-21916.666666666668;12078.74499006736
0.3000000000000002;-1913859354.0;-1816007080.0;-2534879.0;-14817.217390841544;-14677.05611488837;-331.7244306406719;-6925.55005735403;-10000.0;3074.4499426459697
0.3040000000000002;-1973195414.0;-1874750977.0;-2992057.0;-14834.014128744146;-14720.142313125425;-367.3632627414863;-4199.184475650327;-2916.6666666666665;-1282.5178089836604
0.3080000000000002;-2032563538.0;-1934324341.0;-2713555.0;-14842.030345826683;-14909.405803299886;-174.81019409155306;-2004.0542706342421;-9416.666666666666;7412.612396032424
0.3120000000000002;-2091937229.0;-1994249268.0;-2137007.0;-14843.422193817101;-14938.655774921674;-103.59091225616612;-347.9619976046706;-20166.666666666668;19818.704669061997
0.3160000000000002;-2151290873.0;-2053723755.0;-2032664.0;-14838.410216193044;-14864.776691209101;-172.89427457617785;1252.9944060142952;-21416.666666666668;22669.661072680963
0.32000000000000023;-2210599627.0;-2113335571.0;-1786558.0;-14827.187909965702;-14922.01514999664;-90.92128564534141;2805.5765568356037;-6000.0;8805.576556835604
0.32400000000000023;-2269818256.0;-2172491455.0;-1966637.0;-14804.656534736318;-14735.461319413702;-287.32594676513145;5632.843807346035;6916.666666666667;-1283.8228593206322
0.32800000000000024;-2328839234.0;-2231301270.0;-2430106.0;-14755.243722869905;-14733.893752951655;-317.7167504888657;12353.202966603021;18000.0;-5646.797033396979
0.33200000000000024;-2387509004.0;-2290918579.0;-1953588.0;-14667.441780122484;-14931.236244565585;-41.50535011757711;21950.485686855245;5916.666666666667;16033.819020188577
0.33600000000000024;-2445664866.0;-2350437012.0;-1318043.0;-14538.964909350661;-14816.091538031282;-31.161742639184013;32119.21769295577;-4833.333333333333;36952.551026289104
0.34000000000000025;-2503117880.0;-2408983154.0;-1239972.0;-14363.252589851823;-14642.446168772673;-93.60831604817758;43928.07987470951;-2833.3333333333335;46761.413208042846
0.34400000000000025;-2559637644.0;-2466870117.0;-1233214.0;-14129.940419079405;-14476.132680144427;-112.30637819461481;58328.04269310464;20583.333333333332;37744.7093597713
0.34800000000000025;-2614964545.0;-2523400269.0;-1790175.0;-13831.72459938171;-14097.959425146606;-345.6748988686795;74553.95492442358;51833.333333333336;22720.621591090243
0.35200000000000026;-2668812296.0;-2579078979.0;-2163746.0;-13461.93721394503;-13931.904191271551;-288.884994420534;92446.84635917019;61916.666666666664;30530.17969250353
0.35600000000000026;-2720861849.0;-2634175415.0;-1814741.0;-13012.387566324376;-13759.319842302433;-101.75233100002697;112387.41190516339;57250.0;55137.41190516339
0.36000000000000026;-2770784746.0;-2687816162.0;-1317454.0;-12480.723658826399;-13363.98981365045;-48.35029618772023;132915.9768744944;59916.666666666664;72999.31020782773
0.36400000000000027;-2818286554.0;-2739023438.0;-1327082.0;-11875.451313463656;-12787.125456076865;-144.499630139675;151318.08634068558;74333.33333333333;76984.75300735224
0.36800000000000027;-2863102508.0;-2787956543.0;-1369410.0;-11203.988058992725;-12190.664250098582;-184.65695937990859;167865.81361773278;111416.66666666667;56449.14695106611
0.3720000000000003;-2904976298.0;-2834324341.0;-1452708.0;-10468.447074829019;-11560.985008236012;-191.2481020918931;183885.24604092664;142833.33333333334;41051.91270759329
0.3760000000000003;-2943680849.0;-2878055420.0;-1386798.0;-9676.137271988207;-10905.470424922398;-143.95408968395714;198077.4507102028;153333.33333333334;44744.11737686947
0.3800000000000003;-2979033774.0;-2919089355.0;-987339.0;-8838.230727338763;-10215.004191352582;-38.398780944737155;209476.63616236104;161000.0;48476.63616236104
0.3840000000000003;-3010900763.0;-2956766968.0;-703979.0;-7966.747049390989;-9365.596428582774;-50.548414992710605;217870.91948694366;171166.66666666666;46704.25282027699
0.3880000000000003;-3039213439.0;-2991242065.0;-219326.0;-7078.16862271;-8589.172609214622;70.50663858967528;222144.6066702472;188500.0;33644.60667024719
0.3920000000000003;-3063963485.0;-3022289429.0;349853.0;-6187.511049334412;-7725.8889439784925;139.92889505313542;222664.393343897;200750.0;21914.39334389702
0.3960000000000003;-3085202209.0;-3049661865.0;801314.0;-5309.6808803454305;-6796.935452493247;143.61827088328664;219457.54224724532;212166.66666666666;7290.875580578671
0.4000000000000003;-3103076492.0;-3073326416.0;1087129.0;-4468.570513975443;-5895.422394030827;155.10297788519438;210277.59159249696;219833.33333333334;-9555.741740836396
0.4040000000000003;-3117819293.0;-3093870850.0;1706213.0;-3685.6999287259864;-5098.9525338640715;281.41168328843105;195717.6463123641;222750.0;-27032.353687635918
0.4080000000000003;-3129699335.0;-3110894165.0;2077115.0;-2970.010514885396;-4232.995197117817;269.2952967879369;178922.35346014763;218000.0;-39077.646539852365
0.4120000000000003;-3139007262.0;-3124682007.0;2238847.0;-2326.981629194254;-3421.644655892892;230.04657677219666;160757.22142278551;209750.0;-48992.77857721449
0.4160000000000003;-3146067767.0;-3135635376.0;2315203.0;-1765.1261871068764;-2732.4111410535875;235.4175273592041;140463.86052184436;203833.33333333334;-63369.47281148897
0.4200000000000003;-3151232332.0;-3144710083.0;2957980.0;-1291.1410711361684;-2247.2984985789435;423.2821058039674;118496.27899267699;182666.66666666666;-64170.387673989666
0.4240000000000003;-3154854407.0;-3151785278.0;3711212.0;-905.5186590717875;-1756.9998811880537;532.7856168151868;96405.60301609522;152333.33333333334;-55927.730317238114
0.4280000000000003;-3157280281.0;-3156899414.0;4261247.0;-606.4686124012815;-1256.7572845538614;524.8119299121611;74762.51166762652;128666.66666666667;-53904.15499904016
0.43200000000000033;-3158762994.0;-3160167847.0;4372842.0;-370.6783080775124;-809.9965283673629;440.5798658227236;58947.57608094227;121583.33333333333;-62635.75725239106
0.43600000000000033;-3159478851.0;-3162310181.0;4456242.0;-178.9642034184868;-541.5409211067055;454.606465779069;47928.5261647564;112750.0;-64821.4738352436
0.44000000000000034;-3159775126.0;-3163688965.0;4650833.0;-74.06863937200197;-330.6775551433396;481.1092782158743;26223.891011621206;89916.66666666667;-63692.775655045465
0.44400000000000034;-3159928270.0;-3164216309.0;4624184.0;-38.28597820418219;-118.63406802043505;424.05765592128944;8945.665291954943;66250.0;-57304.334708045055
0.44800000000000034;-3160039286.0;-3164227295.0;4393186.0;-27.754117369622566;-15.983311295187102;377.2331715265994;2632.965208639907;50666.666666666664;-48033.70145802676
0.45200000000000035;-3159995453.0;-3164221802.0;4250413.0;10.958339827384961;-1.7376866176705807;375.4574106438107;9678.114299251882;36916.666666666664;-27238.55236741478
0.45600000000000035;-3160033180.0;-3164205322.0;4184066.0;-9.431896300441572;1.6385321621149778;387.56486074268076;-5097.559031956634;19750.0;-24847.559031956633
0.46000000000000035;-3159985786.0;-3164183350.0;4172682.0;11.848665599205;6.228528233535588;396.99604276273607;5320.140474911644;4000.0;1320.1404749116432
0.46400000000000036;-3159993477.0;-3164139404.0;4125237.0;-1.9227526042334455;9.372433775078505;385.7753062487582;-3442.8545508596117;833.3333333333334;-4276.187884192945
0.46800000000000036;-3159999513.0;-3164089966.0;4100853.0;-1.5089530546573353;9.730271707659588;390.2154389599445;103.44988739402756;666.6666666666666;-563.2167792726391
