Zeit[sec];Sollposition[°];Istposition[°];Positionsschleppfehler[°];Sollgeschwindigkeit[°/s];Istgeschwindigkeit[°/s];Geschwindigkeitsdifferenz[°/s];Sollbeschleunigung[°/s*s];Istbeschleunigung[°/s*s];Beschleunigungsdifferenz[°/s*s]
0.0;-9979199999.0;-9979199995.0;-4.0;0.0;-0.00023999999999999998;0.0;0.0;0.0;0.0
0.004;-9979199999.0;-9979199995.0;-4.0;0.0;-0.00023999999999999998;0.0;0.0;0.0;0.0
0.008;-9979199999.0;-9979199995.0;-4.0;0.0;-0.00023999999999999998;0.0;0.0;0.0;0.0
0.012;-9979199999.0;-9979199995.0;-4.0;0.0;-0.00023999999999999998;0.0;0.0;0.0;0.0
0.016;-9979199999.0;-9979199995.0;-4.0;0.0;-0.00023999999999999998;0.0;0.0;0.0;0.0
0.02;-9979199999.0;-9979199995.0;-4.0;0.0;-0.00023999999999999998;0.0;0.0;0.0;0.0
0.024;-9979199999.0;-9979199995.0;-4.0;0.0;-0.00023999999999999998;0.0;0.0;0.0;0.0
0.028;-9979199999.0;-9979199995.0;-4.0;0.0;-0.00023999999999999998;0.0;0.0;0.0;0.0
0.032;-9979199999.0;-9979199995.0;-4.0;0.0;-0.00023999999999999998;0.0;0.0;0.0;0.0
0.036000000000000004;-9979199999.0;-9979199995.0;-4.0;0.0;-0.00023999999999999998;0.0;0.0;0.0;0.0
0.04000000000000001;-9979199999.0;-9979199995.0;-4.0;0.0;-0.00023999999999999998;0.0;0.0;0.0;0.0
0.04400000000000001;-9979199999.0;-9979199995.0;-4.0;0.0;-0.00023999999999999998;0.0;0.0;0.0;0.0
0.048000000000000015;-9979199999.0;-9979199995.0;-4.0;0.0;-0.00023999999999999998;0.0;0.0;0.0;0.0
0.05200000000000002;-9979199999.0;-9979199995.0;-4.0;0.0;-0.00023999999999999998;0.0;0.0;0.0;0.0
0.05600000000000002;-9979200087.0;-9979199995.0;-4.0;-0.021877165575204915;-0.00023999999999999998;0.0;-5.469291393801229;0.0;-5.469291393801229
0.060000000000000026;-9979200959.0;-9979199995.0;-92.0;-0.21802066803092846;-0.00023999999999999998;-0.027157165575204915;-49.035875613930884;0.0;-49.035875613930884
0.06400000000000003;-9979205246.0;-9979200104.0;-855.0;-1.0716157948285707;-0.027397165575204916;-0.24192350245572355;-213.39878169941056;0.0;-213.39878169941056
0.06800000000000003;-9979272794.0;-9979201181.0;-4065.0;-16.886991238822183;-0.26932066803092847;-1.0461951267976421;-3953.843860998403;0.0;-3953.843860998403
0.07200000000000004;-9979363630.0;-9979206443.0;-66351.0;-22.70917313008209;-1.3155157948285707;-19.552535443993612;-1455.5454728149764;0.0;-1455.5454728149764
0.07600000000000004;-9979514791.0;-9979289915.0;-73715.0;-37.790233311738966;-20.868051238822183;-6.264021891259905;-3770.2650454142195;0.0;-3770.2650454142195
0.08000000000000004;-9979741306.0;-9979398443.0;-116348.0;-56.62879788991642;-27.132073130082087;-17.639040181656878;-4709.641144544364;-83.33333333333333;-4626.307811211031
0.08400000000000005;-9980058862.0;-9979577527.0;-163779.0;-79.38888045700287;-44.771113311738965;-21.68442457817745;-5690.020641771613;-166.66666666666666;-5523.353975104946
0.08800000000000005;-9980483300.0;-9979843349.0;-215513.0;-106.109607753239;-66.45553788991641;-25.864122567086454;-6680.181824059034;-416.6666666666667;-6263.515157392367
0.09200000000000005;-9981030181.0;-9980212627.0;-270673.0;-136.72015665404484;-92.31966045700287;-30.030327296236138;-7652.63722520146;-500.0;-7152.63722520146
0.09600000000000006;-9981716676.0;-9980702026.0;-328155.0;-171.62370153994218;-122.349987753239;-34.05946890080584;-8725.886221474333;-750.0;-7975.886221474333
0.10000000000000006;-9982563585.0;-9981327663.0;-389013.0;-211.72729589443315;-156.40945665404485;-38.555024885897325;-10025.898588622746;-916.6666666666666;-9109.231921956078
0.10400000000000006;-9983592137.0;-9982107520.0;-456065.0;-257.13796247049675;-194.96448153994217;-44.126714354490986;-11352.666644015897;-1250.0;-10102.666644015897
0.10800000000000007;-9984818828.0;-9983063884.0;-528253.0;-306.67274728689097;-239.09119589443316;-49.74194657606358;-12383.696204098556;-1583.3333333333333;-10800.362870765222
0.11200000000000007;-9986255398.0;-9984219216.0;-599612.0;-359.14256551028836;-288.83314247049674;-53.81632481639423;-13117.454555849348;-1916.6666666666667;-11200.787889182682
0.11600000000000008;-9987910494.0;-9985589813.0;-665585.0;-413.77400268270816;-342.64946728689097;-56.428198223397374;-13657.859293104948;-2250.0;-11407.859293104948
0.12000000000000008;-9989789855.0;-9987186123.0;-724371.0;-469.84022730904854;-399.07766551028834;-58.15859717241983;-14016.556156585097;-2666.6666666666665;-11349.88948991843
0.12400000000000008;-9991896526.0;-9989015068.0;-774787.0;-526.6676055118254;-457.2362626827082;-59.09118462634041;-14206.844550694213;-3083.3333333333335;-11123.511217360881
0.12800000000000009;-9994231542.0;-9991080377.0;-816149.0;-583.7538987832654;-516.3274473090486;-59.309098202776795;-14271.573317860004;-3583.3333333333335;-10688.23998452667
0.1320000000000001;-9996794804.0;-9993382923.0;-848619.0;-640.815593192311;-575.6365455118254;-59.034493271440056;-14265.423602261393;-4000.0;-10265.423602261393
0.1360000000000001;-9999585809.0;-9995921607.0;-873197.0;-697.7510633834753;-634.6710387832654;-58.53637440904549;-14233.867547791078;-4500.0;-9733.867547791078
0.1400000000000001;-10002604075.0;-9998694436.0;-891373.0;-754.5665931355716;-693.2074131923109;-58.02603019116441;-14203.882438024068;-5000.0;-9203.882438024068
0.1440000000000001;-10005849310.0;-10001699369.0;-904706.0;-811.3087443209433;-751.2334433834753;-57.61550975209627;-14185.537796342942;-5416.666666666667;-8768.871129676274
0.1480000000000001;-10009321401.0;-10004934764.0;-914546.0;-868.0226885098031;-808.8489531355716;-57.3325511853717;-14178.486047214932;-5916.666666666667;-8261.819380548264
0.1520000000000001;-10013020346.0;-10008399490.0;-921911.0;-924.7361687706386;-866.1815043209433;-57.15584418885976;-14178.370065208896;-6333.333333333333;-7845.0367318755625
0.1560000000000001;-10016946185.0;-10012092839.0;-927507.0;-981.4596997856244;-923.3373485098031;-57.04924026083552;-14180.882753746431;-6750.0;-7430.882753746431
0.16000000000000011;-10021098958.0;-10016014385.0;-931800.0;-1038.1931660398282;-980.3865887706386;-56.9811110149858;-14183.366563550948;-7166.666666666667;-7016.699896884281
0.16400000000000012;-10025478688.0;-10020163855.0;-935103.0;-1094.9324540451453;-1037.3676997856244;-56.93164625420377;-14184.822001329281;-7666.666666666667;-6518.155334662613
0.16800000000000012;-10030085382.0;-10024541052.0;-937636.0;-1151.673565229395;-1094.2993460398282;-56.891268005317215;-14185.277796062452;-8166.666666666667;-6018.611129395784
0.17200000000000013;-10034919039.0;-10029145814.0;-939568.0;-1208.4141586807186;-1151.1906140451454;-56.85703118424976;-14185.148362830887;-8583.333333333334;-5601.815029497553
0.17600000000000013;-10039979478.0;-10033978004.0;-941035.0;-1265.1097705041882;-1208.0476452293951;-56.82861345132346;-14173.90295586739;-8916.666666666666;-5257.236289200724
0.18000000000000013;-10045266164.0;-10039037509.0;-941969.0;-1321.6712820255057;-1264.8762586807186;-56.7516518234695;-14140.377880329368;-9416.666666666666;-4723.711213662702
0.18400000000000014;-10050778377.0;-10044324020.0;-942144.0;-1378.0532562803573;-1321.627910504188;-56.57201152131756;-14095.49356371292;-9833.333333333334;-4262.160230379587
0.18800000000000014;-10056513179.0;-10049836819.0;-941558.0;-1433.7003961552434;-1378.1999220255057;-56.34681425485178;-13911.78496872152;-10333.333333333334;-3578.451635388186
0.19200000000000014;-10062463028.0;-10055575005.0;-938174.0;-1487.4621254607378;-1434.5467362803574;-55.44409987488598;-13440.432326373582;-10750.0;-2690.432326373582
0.19600000000000015;-10068617868.0;-10061534968.0;-928060.0;-1538.7100418256555;-1489.9908361552434;-53.15488930549441;-12811.979091229432;-11250.0;-1561.979091229432
0.20000000000000015;-10074966381.0;-10067707550.0;-910318.0;-1587.1281319750703;-1543.1457254607378;-50.1833963649176;-12104.522537353716;-11666.666666666666;-437.85587068705036
0.20400000000000015;-10081494162.0;-10074080866.0;-885515.0;-1631.9452198504018;-1593.3291218256554;-46.92991014941481;-11204.27196883287;-12000.0;795.7280311671298
0.20800000000000016;-10088183387.0;-10080641902.0;-852260.0;-1672.306075038779;-1640.2590319750702;-42.821787875331665;-10090.213797094293;-12250.0;2159.786202905707
0.21200000000000016;-10095013697.0;-10087374225.0;-809162.0;-1707.577384216337;-1683.080819850402;-37.774975188377084;-8817.827294389474;-12583.333333333334;3765.50603894386
0.21600000000000016;-10101962877.0;-10094257648.0;-756049.0;-1737.29499034828;-1720.855795038779;-32.0845291775579;-7429.401532985765;-12750.0;5320.598467014235
0.22000000000000017;-10109007305.0;-10101269409.0;-693468.0;-1761.1069401338104;-1752.9403242163369;-25.96274613194305;-5952.987446382622;-12916.666666666666;6963.679220284044
0.22400000000000017;-10116124682.0;-10108385021.0;-622284.0;-1779.3441655203999;-1778.90307034828;-19.540909785530403;-4559.306346647361;-12916.666666666666;8357.360320019305
0.22800000000000017;-10123296977.0;-10115578796.0;-545886.0;-1793.073635783749;-1798.4439801338103;-13.653345386589535;-3432.3675658372963;-12916.666666666666;9484.29910082937
0.23200000000000018;-10130508670.0;-10122827185.0;-469792.0;-1802.9232030148162;-1812.0973255203999;-9.163830263349155;-2462.391807766778;-12833.333333333334;10370.941525566555
0.23600000000000018;-10137745633.0;-10130112229.0;-396441.0;-1809.2405056837238;-1821.261155783749;-5.448507231067197;-1579.3256672268967;-12583.333333333334;11004.007666106438
0.24000000000000019;-10144996952.0;-10137419067.0;-326566.0;-1812.8297513586126;-1826.7096630148162;-2.1248026689074777;-897.3114187222109;-12333.333333333334;11436.021914611123
0.2440000000000002;-10152255222.0;-10144734404.0;-262548.0;-1814.5674832690727;-1828.8344656837237;0.2518343251110764;-434.43297761501753;-12000.0;11565.567022384983
0.2480000000000002;-10159515781.0;-10152048734.0;-206488.0;-1815.1395502654134;-1828.5826313586126;1.6258680895398356;-143.01674908517725;-11583.333333333334;11440.316584248158
0.25200000000000017;-10166776182.0;-10159356561.0;-159220.0;-1815.100346127805;-1826.9567632690728;2.264013003659329;9.801034402073583;-11166.666666666666;11176.46770106874
0.25600000000000017;-10174035564.0;-10166655332.0;-120850.0;-1814.8454150713108;-1824.6927502654135;2.3414041376083787;63.73276412358564;-10666.666666666666;10730.399430790252
0.2600000000000002;-10181293955.0;-10173944737.0;-90827.0;-1814.5975100732169;-1822.351346127805;2.0563110564942235;61.97624952346814;-10250.0;10311.976249523468
0.2640000000000002;-10188551715.0;-10181225917.0;-68038.0;-1814.4398749209292;-1820.2950350713108;1.6152449980938854;39.40878807190984;-9750.0;9789.408788071909
0.2680000000000002;-10195809205.0;-10188500636.0;-51079.0;-1814.3724048767704;-1818.679790073217;1.175175152287693;16.867511039720284;-9250.0;9266.86751103972
0.2720000000000002;-10203066655.0;-10195770654.0;-38551.0;-1814.3624166777836;-1817.5046149209293;0.8191500441589596;2.497049746693847;-8833.333333333334;8835.830383080029
0.2760000000000002;-10210324161.0;-10203037395.0;-29260.0;-1814.3764240039575;-1816.6854648767703;0.5674481989867672;-3.5018315434740543;-8333.333333333334;8329.83150178986
0.2800000000000002;-10217581733.0;-10210301867.0;-22294.0;-1814.3929923073372;-1816.1180166777835;0.40395267382609745;-4.142075844924875;-7916.666666666667;7912.524590821742
0.2840000000000002;-10224839347.0;-10217564723.0;-17010.0;-1814.4033251735907;-1815.7140640039574;0.3004716966202068;-2.5832165633801196;-7416.666666666667;7414.083450103287
0.2880000000000002;-10232096974.0;-10224826377.0;-12970.0;-1814.406755639549;-1815.4135923073372;0.2320671337465683;-0.8576164895544025;-7000.0;6999.142383510445
0.2920000000000002;-10239354598.0;-10232087103.0;-9871.0;-1814.4059188458302;-1815.1815251735907;0.18250953404185566;0.20919842967259683;-6500.0;6500.209198429673
0.2960000000000002;-10246612213.0;-10239347099.0;-7499.0;-1814.4036301796043;-1814.9990156395488;0.14315679371861734;0.5721665564806244;-6083.333333333333;6083.905499889814
0.3000000000000002;-10253869820.0;-10246606522.0;-5691.0;-1814.4016234162905;-1814.8558588458302;0.11076866622579473;0.5016908284574129;-5583.333333333333;5583.83502416179
0.3040000000000002;-10261127422.0;-10253865502.0;-4318.0;-1814.4004984263158;-1814.7450901796044;0.08438676331388706;0.28124749366043034;-5166.666666666667;5166.947914160328
0.3080000000000002;-10268385023.0;-10261124144.0;-3278.0;-1814.4001573427147;-1814.6607034162905;0.06352498997466682;0.08527090028564999;-4750.0;4750.085270900286
0.3120000000000002;-10275642624.0;-10268382532.0;-2491.0;-1814.4002575751306;-1814.5971784263158;0.04756108360106737;-0.025058103972241952;-4333.333333333333;4333.308275229361
0.3160000000000002;-10282900227.0;-10275640730.0;-1894.0;-1814.4004909072546;-1814.5496173427148;0.03571976758416895;-0.05833303100644116;-3916.6666666666665;3916.60833363566
0.32000000000000023;-10290157830.0;-10282898785.0;-1442.0;-1814.4006825473816;-1814.5138975751306;0.026886667875942294;-0.04791003175341757;-3333.3333333333335;3333.28542330158
0.32400000000000023;-10297415433.0;-10290156733.0;-1097.0;-1814.400778973379;-1814.4870109072547;0.0205083598730198;-0.024106499324716424;-3000.0;2999.9758935006753
0.32800000000000024;-10304673037.0;-10297414599.0;-834.0;-1814.4007958763352;-1814.4665025473817;0.015683574002650857;-0.0042257390759914415;-2500.0;2499.995774260924
0.33200000000000024;-10311930640.0;-10304672402.0;-635.0;-1814.400770456258;-1814.450818973379;0.011923097043791131;0.0063550193090122775;-2166.6666666666665;2166.6730216859755
0.33600000000000024;-10319188244.0;-10311930157.0;-483.0;-1814.400733980197;-1814.4388958763352;0.009145420077175004;0.009119015260239394;-1666.6666666666667;1666.675785681927
0.34000000000000025;-10326445847.0;-10319187876.0;-368.0;-1814.400703177408;-1814.429750456258;0.006936476061127905;0.007700697210566432;-1416.6666666666667;1416.6743673638773
0.34400000000000025;-10333703450.0;-10326445567.0;-280.0;-1814.400682478132;-1814.422813980197;0.00531080278869922;0.005174819023068267;-1000.0;1000.0051748190231
0.34800000000000025;-10340961053.0;-10333703237.0;-213.0;-1814.4006696785018;-1814.4175031774082;0.004040699276174564;0.0031999075531530252;-750.0;750.0031999075532
0.35200000000000026;-10348218656.0;-10340960890.0;-163.0;-1814.4006608096506;-1814.413462478132;0.0030127996301416715;0.0022172127955855103;-416.6666666666667;416.66888387946227
0.35600000000000026;-10355476259.0;-10348218531.0;-125.0;-1814.4006527492884;-1814.410449678502;0.002288868851337611;0.0020150905584159773;-333.3333333333333;333.33534842389173
0.36000000000000026;-10362733862.0;-10355476163.0;-96.0;-1814.4006439277578;-1814.4081608096506;0.001748060362160686;0.0022053826569390367;-166.66666666666666;166.6688720493236
0.36400000000000027;-10369991465.0;-10362733788.0;-74.0;-1814.4006340187202;-1814.4064127492884;0.0013288215307056817;0.0024772593860689085;-83.33333333333333;83.3358105927194
0.36800000000000027;-10377249067.0;-10369991408.0;-57.0;-1814.4006233084076;-1814.4050839277577;0.0010299090374701336;0.0026775781520882447;83.33333333333333;-83.33065575518124
0.3720000000000003;-10384506670.0;-10377249024.0;-43.0;-1814.400612220396;-1814.4040540187202;0.0008507103125339199;0.0027720029152078496;83.33333333333333;-83.33056133041812
0.3760000000000003;-10391764273.0;-10384506636.0;-34.0;-1814.4006010645774;-1814.4032033084077;0.0005510880116617045;0.002788954645893682;83.33333333333333;-83.33054437868743
0.3800000000000003;-10399021876.0;-10391764246.0;-27.0;-1814.4005899907042;-1814.402652220396;0.00043115581866004504;0.002768468277736247;83.33333333333333;-83.33056486505559
0.3840000000000003;-10406279478.0;-10399021854.0;-22.0;-1814.4005790163776;-1814.4022210645774;0.0003110738730356388;0.0027435816605247965;83.33333333333333;-83.3305897516728
0.3880000000000003;-10413537081.0;-10406279461.0;-17.0;-1814.4005681130316;-1814.4019099907043;0.0003109743267941667;0.002725836509398505;83.33333333333333;-83.33060749682393
0.3920000000000003;-10420794683.0;-10413537067.0;-14.0;-1814.4005572321919;-1814.4015990163775;0.00019090334603788506;0.0027202099204259866;83.33333333333333;-83.3306131234129
0.3960000000000003;-10428052286.0;-10420794672.0;-11.0;-1814.4005463426954;-1814.4014081130315;0.00019088083968199498;0.002722374119912274;83.33333333333333;-83.33061095921342
0.4000000000000003;-10435309888.0;-10428052276.0;-10.0;-1814.4005354306933;-1814.4012172321918;7.088949632816366e-05;0.002728000538354536;83.33333333333333;-83.33060533279497
0.4040000000000003;-10442567491.0;-10435309880.0;-8.0;-1814.4005245002247;-1814.4011463426955;0.00013091200230519462;0.002732617133460735;0.0;0.002732617133460735
0.4080000000000003;-10449825093.0;-10442567484.0;-7.0;-1814.4005135518664;-1814.4010154306932;7.09304683823575e-05;0.0027370895736567036;0.0;0.0027370895736567036
0.4120000000000003;-10457082696.0;-10449825087.0;-6.0;-1814.4005025919669;-1814.4009445002248;7.094835837051505e-05;0.0027399748887546593;0.0;0.0027399748887546593
0.4160000000000003;-10464340298.0;-10457082690.0;-6.0;-1814.4004916176395;-1814.4008735518664;1.0959899555018637e-05;0.002743581831055053;0.0;0.002743581831055053
0.4200000000000003;-10471597900.0;-10464340293.0;-5.0;-1814.4004806404275;-1814.4008625919669;7.097432740010845e-05;0.00274430300351014;0.0;0.00274430300351014
0.4240000000000003;-10478855502.0;-10471597896.0;-4.0;-1814.4004696551362;-1814.4007916176395;7.097721186255512e-05;0.002746322820712521;0.0;0.002746322820712521
0.4280000000000003;-10486113105.0;-10478855498.0;-4.0;-1814.4004586571493;-1814.4007206404276;1.0985291282850085e-05;0.0027494967298480333;0.0;0.0027494967298480333
0.43200000000000033;-10493370707.0;-10486113100.0;-5.0;-1814.4004476551224;-1814.4007096551363;-4.900201292912243e-05;0.002750506723714352;0.0;0.002750506723714352
0.43600000000000033;-10500628309.0;-10493370703.0;-4.0;-1814.4004366450165;-1814.4007586571493;7.100202674337197e-05;0.0027525264840733144;0.0;0.0027525264840733144
0.44000000000000034;-10507885911.0;-10500628305.0;-4.0;-1814.4004256245235;-1814.4006876551225;1.1010105936293257e-05;0.0027551232619771326;0.0;0.0027551232619771326
0.44400000000000034;-10515143513.0;-10507885907.0;-4.0;-1814.400414595374;-1814.4006766450166;1.102049304790853e-05;0.0027572873477765825;0.0;0.0027572873477765825
0.44800000000000034;-10522401115.0;-10515143509.0;-4.0;-1814.4004035581456;-1814.4006656245235;1.102914939110633e-05;0.0027593071081355447;0.0;0.0027593071081355447
0.45200000000000035;-10529658717.0;-10522401111.0;-4.0;-1814.4003925174545;-1814.4006545953741;1.1037228432542179e-05;0.002760172776561376;0.0;0.002760172776561376
0.45600000000000035;-10536916319.0;-10529658713.0;-4.0;-1814.4003814669534;-1814.4006435581457;1.1040691106245504e-05;0.0027626252858681255;0.0;0.0027626252858681255
0.46000000000000035;-10544173921.0;-10536916315.0;-4.0;-1814.4003704031788;-1814.4006325174546;1.1050501143472502e-05;0.002765943634130963;0.0;0.002765943634130963
0.46400000000000036;-10551431522.0;-10544173917.0;-4.0;-1814.400359341713;-1814.4006214669535;1.1063774536523852e-05;0.0027653664460558502;0.0;0.0027653664460558502
0.46800000000000036;-10558689124.0;-10551431519.0;-3.0;-1814.4003482675514;-1814.400610403179;7.106146586011164e-05;0.002768540412034781;0.0;0.002768540412034781
0.47200000000000036;-10565946726.0;-10558689121.0;-3.0;-1814.4003371881963;-1814.400539341713;1.1074161648139125e-05;0.002769838772564981;0.0;0.002769838772564981
0.47600000000000037;-10573204327.0;-10565946723.0;-3.0;-1814.4003261007617;-1814.4005282675514;1.1079355090259924e-05;0.002771858646610781;0.0;0.002771858646610781
0.48000000000000037;-10580461929.0;-10573204325.0;-2.0;-1814.4003150115957;-1814.4005171881963;7.108743466233136e-05;0.002772291509245406;0.0;0.002772291509245406
0.4840000000000004;-10587719531.0;-10580461926.0;-3.0;-1814.4003039114657;-1814.4004461007617;-4.8910834038906614e-05;0.002775032498902874;0.0;0.002775032498902874
0.4880000000000004;-10594977132.0;-10587719527.0;-4.0;-1814.400292807873;-1814.4004950115957;-4.889987008027674e-05;0.0027758981673287053;0.0;0.0027758981673287053
