Zeit[sec];Sollposition[°];Istposition[°];Positionsschleppfehler[°];Sollgeschwindigkeit[°/s];Istgeschwindigkeit[°/s];Geschwindigkeitsdifferenz[°/s];Sollbeschleunigung[°/s*s];Istbeschleunigung[°/s*s];Beschleunigungsdifferenz[°/s*s]
0.0;0.0;2.0;-2.0;-0.0;-0.000192;0.0;0.0;0.0;0.0
0.004;0.0;2.0;-2.0;-0.0;-0.000192;0.0;0.0;0.0;0.0
0.008;0.0;2.0;-2.0;-0.0;-0.000192;0.0;0.0;0.0;0.0
0.012;0.0;2.0;-2.0;-0.0;-0.000192;0.0;0.0;0.0;0.0
0.016;0.0;2.0;-2.0;-0.0;-0.000192;0.0;0.0;0.0;0.0
0.02;0.0;2.0;-2.0;-0.0;-0.000192;0.0;0.0;0.0;0.0
0.024;0.0;2.0;-2.0;-0.0;-0.000192;0.0;0.0;0.0;0.0
0.028;0.0;2.0;-2.0;-0.0;-0.000192;0.0;0.0;0.0;0.0
0.032;0.0;2.0;-2.0;-0.0;-0.000192;0.0;0.0;0.0;0.0
0.036000000000000004;0.0;2.0;-2.0;-0.0;-0.000192;0.0;0.0;0.0;0.0
0.04000000000000001;0.0;2.0;-2.0;-0.0;-0.000192;0.0;0.0;0.0;0.0
0.04400000000000001;0.0;2.0;-2.0;-0.0;-0.000192;0.0;0.0;0.0;0.0
0.048000000000000015;0.0;2.0;-2.0;-0.0;-0.000192;0.0;0.0;0.0;0.0
0.05200000000000002;0.0;2.0;-2.0;-0.0;-0.000192;0.0;0.0;0.0;0.0
0.05600000000000002;0.0;2.0;-2.0;-0.0;-0.000192;0.0;0.0;0.0;0.0
0.060000000000000026;0.0;2.0;-2.0;-0.0;-0.000192;0.0;0.0;0.0;0.0
0.06400000000000003;0.0;2.0;-2.0;-0.0;-0.000192;0.0;0.0;0.0;0.0
0.06800000000000003;0.0;2.0;-2.0;-0.0;-0.000192;0.0;0.0;0.0;0.0
0.07200000000000004;0.0;2.0;-2.0;-0.0;-0.000192;0.0;0.0;0.0;0.0
0.07600000000000004;0.0;2.0;-2.0;-0.0;-0.000192;0.0;0.0;0.0;0.0
0.08000000000000004;0.0;2.0;-2.0;-0.0;-0.000192;0.0;0.0;0.0;0.0
0.08400000000000005;-123.0;2.0;-2.0;-0.030873303555596948;-0.000192;0.0;-7.718325888899237;0.0;-7.718325888899237
0.08800000000000005;-1354.0;2.0;-125.0;-0.30767324382694955;-0.000192;-0.04268130355559695;-69.19998506783816;0.0;-69.19998506783816
0.09200000000000005;-7403.0;-169.0;-1185.0;-1.5122763829704815;-0.042873303555596945;-0.37855994027135265;-301.150784785883;0.0;-301.150784785883
0.09600000000000006;-95918.0;-1854.0;-5549.0;-22.12886813020606;-0.4214332438269496;-1.623547139143532;-5154.147936808895;0.0;-5154.147936808895
0.10000000000000006;-232226.0;-10033.0;-85885.0;-34.0770277017752;-2.044980382970482;-28.32884774723558;-2987.0398928922846;0.0;-2987.0398928922846
0.10400000000000006;-471133.0;-131528.0;-100698.0;-59.72673858852904;-30.373828130206064;-13.37020757156914;-6412.427721688459;-83.33333333333333;-6329.094388355126
0.10800000000000007;-832731.0;-306504.0;-164629.0;-90.39943692947547;-43.7440357017752;-31.78708688675384;-7668.174585236608;-166.66666666666666;-7501.5079185699415
0.11200000000000007;-1320649.0;-608628.0;-224103.0;-121.97952096804525;-75.53112258852904;-36.38220234094642;-7895.021009642445;-333.3333333333333;-7561.687676309111
0.11600000000000008;-1931893.0;-1056281.0;-264368.0;-152.81095646338076;-111.91332492947546;-35.4455240385698;-7707.858873833878;-583.3333333333334;-7124.525540500545
0.12000000000000008;-2697093.0;-1645716.0;-286177.0;-191.29992665582057;-147.35884896804527;-32.9250994953355;-9622.242548109953;-833.3333333333334;-8788.909214776619
0.12400000000000008;-3653385.0;-2366851.0;-330242.0;-239.07311167174632;-180.28394846338077;-42.71921019243982;-11943.296253981436;-1166.6666666666667;-10776.62958731477
0.12800000000000009;-4839141.0;-3258863.0;-394522.0;-296.4389050914674;-223.00315865582058;-53.94406501592573;-14341.448354930271;-1416.6666666666667;-12924.781688263605
0.1320000000000001;-6286558.0;-4366651.0;-472490.0;-361.8542542387442;-276.9472236717463;-64.85072141972108;-16353.8372868192;-1833.3333333333333;-14520.503953485866
0.1360000000000001;-8018566.0;-5733842.0;-552716.0;-433.00196816028415;-341.7979450914674;-73.11704514727683;-17786.928480384988;-2166.6666666666665;-15620.26181371832
0.1400000000000001;-10049975.0;-7393501.0;-625065.0;-507.8523288162932;-414.9149902387442;-78.09321792153992;-18712.590164002264;-2666.6666666666665;-16045.923497335598
0.1440000000000001;-12390564.0;-9365533.0;-684442.0;-585.1470159840026;-493.00820816028414;-80.55055265600907;-19323.67179192734;-3250.0;-16073.67179192734
0.1480000000000001;-15046837.0;-11659768.0;-730796.0;-664.0681988712718;-573.5587608162932;-81.74467116770938;-19730.2957218173;-3916.6666666666665;-15813.629055150632
0.1520000000000001;-18022608.0;-14280981.0;-765856.0;-743.9429029490026;-655.3034319840026;-82.2869428872691;-19968.676019432707;-4500.0;-15468.676019432707
0.1560000000000001;-21319574.0;-17231342.0;-791266.0;-824.241267782071;-737.5903748712717;-82.3140640777309;-20074.591208267095;-5083.333333333333;-14991.25787493376
0.16000000000000011;-24938062.0;-20510959.0;-808615.0;-904.6221987940798;-819.9044389490026;-81.96386883306832;-20095.232753002223;-5750.0;-14345.232753002221
0.16400000000000012;-28877762.0;-24118432.0;-819630.0;-984.9248701741772;-901.8683077820709;-81.43837101200893;-20075.667845024327;-6416.666666666667;-13659.00117835766
0.16800000000000012;-33138219.0;-28051658.0;-826104.0;-1065.1142648287896;-983.3066787940799;-80.92417538009738;-20047.34866365311;-7083.333333333333;-12964.015330319777
0.17200000000000013;-37719090.0;-32308581.0;-829638.0;-1145.2174751072841;-1064.2308541741772;-80.5286586546124;-20025.802569623636;-7666.666666666667;-12359.135902956968
0.17600000000000013;-42620195.0;-36887619.0;-831471.0;-1225.2762592660704;-1144.7595128287896;-80.27917827849456;-20014.69603969656;-8333.333333333334;-11681.362706363227
0.18000000000000013;-47841486.0;-41787773.0;-832422.0;-1305.3227975965142;-1225.0386911072842;-80.1500801587863;-20011.634582610954;-8916.666666666666;-11094.967915944286
0.18400000000000014;-53382981.0;-47008528.0;-832958.0;-1385.3736158749107;-1305.1887712660705;-80.09799433044373;-20012.704569599122;-9583.333333333334;-10429.37123626579
0.18800000000000014;-59244713.0;-52549675.0;-833306.0;-1465.433033288054;-1385.2867655965142;-80.0842262783965;-20014.854353285842;-10166.666666666666;-9848.187686619174
0.19200000000000014;-65426710.0;-58411158.0;-833555.0;-1545.499106608808;-1465.3709918749107;-80.08332141314327;-20016.51833018849;-10833.333333333334;-9183.184996855156
0.19600000000000015;-71928984.0;-64592975.0;-833735.0;-1625.56831472133;-1545.454313288054;-80.08335332075399;-20017.302028130474;-11416.666666666666;-8600.635361463806
0.20000000000000015;-78751536.0;-71095125.0;-833859.0;-1705.6379647658357;-1625.537666608808;-80.08111211252185;-20017.41251112645;-12083.333333333334;-7934.079177793117
0.20400000000000015;-85894363.0;-77917600.0;-833936.0;-1785.7067854416991;-1705.6187787213298;-80.07704204450579;-20017.20516896586;-12666.666666666666;-7350.538502299192
0.20800000000000016;-93357462.0;-85060383.0;-833980.0;-1865.7745866931741;-1785.6958207658356;-80.07304467586346;-20016.950312868743;-13333.333333333334;-6683.61697953541
0.21200000000000016;-101140829.0;-92523458.0;-834004.0;-1945.8416914433992;-1865.768865441699;-80.07010525147507;-20016.776187556276;-13916.666666666666;-6100.109520889609
0.21600000000000016;-109244464.0;-100306813.0;-834016.0;-2025.9085041246526;-1945.8389706931741;-80.06825675022515;-20016.703170313347;-14583.333333333334;-5433.369836980015
0.22000000000000017;-117668365.0;-108410441.0;-834023.0;-2105.9753049468;-2025.9072274433993;-80.06748468125352;-20016.700205536836;-15166.666666666666;-4850.03353887017
0.22400000000000017;-126412534.0;-116834339.0;-834026.0;-2186.0422156747363;-2105.974712124653;-80.06708882214707;-20016.72768198409;-15833.333333333334;-4183.39434865076
0.22800000000000017;-135476972.0;-125578506.0;-834028.0;-2266.109247610885;-2186.0418009468;-80.06710272793634;-20016.757984037213;-16500.0;-3516.7579840372127
0.23200000000000018;-144861678.0;-134642941.0;-834031.0;-2346.176363781498;-2266.108903674736;-80.06731993614903;-20016.779042653183;-17000.0;-3016.7790426531838
0.23600000000000018;-154566652.0;-144027645.0;-834033.0;-2426.2435225582394;-2346.1762236108852;-80.0673081706127;-20016.789694185376;-17500.0;-2516.789694185377
0.24000000000000019;-164591896.0;-153732619.0;-834033.0;-2506.310696863787;-2426.243531781498;-80.06715877674151;-20016.79357638693;-17916.666666666668;-2100.126909720263
0.2440000000000002;-174937408.0;-163757861.0;-834035.0;-2586.377876150333;-2506.3106905582395;-80.0673663055477;-20016.794821636497;-18416.666666666668;-1600.128154969827
0.2480000000000002;-185603188.0;-174103373.0;-834035.0;-2666.4450607398257;-2586.378056863787;-80.06717928654598;-20016.796147373156;-18750.0;-1266.7961473731566
0.25200000000000017;-196589238.0;-184769153.0;-834035.0;-2746.5122553286365;-2666.445236150333;-80.06718458949263;-20016.798647202675;-19083.333333333332;-933.4653138693448
0.25600000000000017;-207895556.0;-195755202.0;-834036.0;-2826.5794646933687;-2746.5124207398258;-80.06729058881092;-20016.80234118305;-19333.333333333332;-683.4690078497197
0.2600000000000002;-219522144.0;-207061520.0;-834036.0;-2906.6466919492696;-2826.5797113286367;-80.06720936473221;-20016.80681397522;-19666.666666666668;-350.14014730855433
0.2640000000000002;-231468945.0;-218688107.0;-834037.0;-2986.700171663972;-2906.646920693369;-80.06732325590065;-20013.369928675616;-19833.333333333332;-180.03659534228336
0.2680000000000002;-243735744.0;-230634963.0;-833982.0;-3066.6996651372397;-2986.7142439492695;-80.0481997147026;-19999.873368316912;-20083.333333333332;83.45996501642003
0.2720000000000002;-256322152.0;-242902012.0;-833732.0;-3146.6018862640944;-3066.762443663972;-79.97549347326776;-19975.555281713696;-20083.333333333332;107.77805161963624
0.2760000000000002;-269226063.0;-255488963.0;-833189.0;-3225.9774546895205;-3146.73793713724;-79.85009312685452;-19843.89210635652;-20083.333333333332;239.44122697681178
0.2800000000000002;-282440570.0;-268395315.0;-830748.0;-3303.6265676452826;-3226.5880302640944;-79.1412324254261;-19412.27823894053;-20083.333333333332;671.055094392802
0.2840000000000002;-295953599.0;-281618232.0;-822338.0;-3378.2570886225194;-3305.7292626895205;-76.84175295576233;-18657.630244309188;-20083.333333333332;1425.703089024143
0.2880000000000002;-309749334.0;-295148516.0;-805083.0;-3448.9338075179007;-3382.571015645283;-72.97404097723665;-17669.179723845333;-20083.333333333332;2414.1536094880003
0.2920000000000002;-323807693.0;-308970696.0;-778638.0;-3514.5895076956876;-3455.5450566225195;-68.13799889538132;-16413.92504444673;-20000.0;3586.074955553272
0.2960000000000002;-338103852.0;-323065428.0;-742265.0;-3574.0395074264256;-3523.683055517901;-62.16389217778669;-14862.499932684499;-19916.666666666668;5054.166733982168
0.3000000000000002;-352609320.0;-337408815.0;-695037.0;-3626.3668179529486;-3585.8469476956875;-54.916111730738066;-13081.827631630746;-19833.333333333332;6751.505701702587
0.3040000000000002;-367293030.0;-351971867.0;-637453.0;-3670.9273848218095;-3640.7630594264256;-46.79924652652289;-11140.141717215214;-19666.666666666668;8526.524949451454
0.3080000000000002;-382121988.0;-366722116.0;-570914.0;-3707.239382314866;-3687.5623059529485;-38.1728228688612;-9077.999373264105;-19500.0;10422.000626735895
0.3120000000000002;-397063473.0;-381625056.0;-496932.0;-3735.370928915211;-3725.7351288218097;-29.20972549305634;-7032.886650086311;-19250.0;12217.113349913689
0.3160000000000002;-412088764.0;-396644835.0;-418638.0;-3756.3227396253365;-3754.944854314866;-20.61532260034528;-5237.952677531325;-18916.666666666668;13678.713989135344
0.32000000000000023;-427174021.0;-411747075.0;-341689.0;-3771.313964168937;-3775.5601769152113;-13.564706710124938;-3747.8061359001913;-18500.0;14752.193864099809
0.32400000000000023;-442299145.0;-426903574.0;-270447.0;-3781.280789958858;-3789.124883625336;-8.151992543600954;-2491.706447480169;-18000.0;15508.29355251983
0.32800000000000024;-457448426.0;-442092681.0;-206464.0;-3787.3200179714204;-3797.276876168937;-3.8244577899208707;-1509.8070031406223;-17500.0;15990.192996859378
0.33200000000000024;-472611012.0;-457297086.0;-151340.0;-3790.6464082648954;-3801.101333958858;-0.7473240125623306;-831.5975733687537;-16916.666666666668;16085.069093297914
0.33600000000000024;-487779852.0;-472504480.0;-106532.0;-3792.2099329699886;-3801.8486579714204;0.9751777065248461;-390.88117627329666;-16333.333333333334;15942.452157060037
0.34000000000000025;-502950665.0;-487707973.0;-71879.0;-3792.7028332095615;-3800.8734802648955;1.7631632949069171;-123.22505989322963;-15750.0;15626.77494010677
0.34400000000000025;-518121269.0;-502904414.0;-46251.0;-3792.650962501527;-3799.1103169699886;1.9673877604273002;12.967677008646206;-15166.666666666666;15179.634343675312
0.34800000000000025;-533290924.0;-518092985.0;-28284.0;-3792.413473562903;-3797.1429292095613;1.7767027080344633;59.37223465593888;-14500.0;14559.372234655939
0.35200000000000026;-548459674.0;-533274449.0;-16475.0;-3792.1872823079557;-3795.366226501527;1.371152938623709;56.54781373687001;-13833.333333333334;13889.881147070204
0.35600000000000026;-563627850.0;-548450429.0;-9245.0;-3792.0440015048157;-3793.995073562903;0.920271254947238;35.820200784996814;-13166.666666666666;13202.486867451662
0.36000000000000026;-578795779.0;-563622728.0;-5122.0;-3791.9820060016623;-3793.074802307956;0.5390888031402028;15.498875788352962;-12583.333333333334;12598.832209121687
0.36400000000000027;-593963666.0;-578792870.0;-2909.0;-3791.9716281948363;-3792.5357135048157;0.2744435031536341;2.5944517064999673;-11916.666666666666;11919.261118373166
0.36800000000000027;-609131599.0;-593961915.0;-1751.0;-3791.982963800344;-3792.261270001662;0.12154580682590677;-2.833901376902759;-11333.333333333334;11330.499431956432
0.3720000000000003;-624299587.0;-609130473.0;-1126.0;-3791.996946612315;-3792.139724194836;0.048664394492334395;-3.4957029927227268;-10666.666666666666;10663.170963673943
0.3760000000000003;-639467611.0;-624298837.0;-750.0;-3792.005716272085;-3792.091059800344;0.022113188028924924;-2.1924149425558426;-10083.333333333334;10081.140918390778
0.3800000000000003;-654635646.0;-639467112.0;-499.0;-3792.008592418509;-3792.068946612315;0.015326340229876223;-0.7190366060285669;-9416.666666666666;9415.947630060637
0.3840000000000003;-669803678.0;-654635326.0;-320.0;-3792.0078167749853;-3792.053620272085;0.014307853575701301;0.1939108809665413;-8833.333333333334;8833.5272442143
0.3880000000000003;-684971702.0;-669803483.0;-195.0;-3792.0058100751776;-3792.0393124185093;0.01277564352403715;0.5016749519199948;-8166.666666666667;8167.168341618587
0.3920000000000003;-700139719.0;-684971589.0;-113.0;-3792.0040634755906;-3792.0265367749853;0.009878699807813973;0.4366498967556254;-7500.0;7500.436649896756
0.3960000000000003;-715307732.0;-700139655.0;-64.0;-3792.0030889008267;-3792.0166580751775;0.006450599586969474;0.24364369096474547;-6916.666666666667;6916.910310357632
0.4000000000000003;-730475744.0;-715307695.0;-37.0;-3792.0027962822937;-3792.0102074755905;0.003566574763681274;0.07315463324175653;-6250.0;6250.073154633242
0.4040000000000003;-745643756.0;-730475721.0;-23.0;-3792.002885885323;-3792.006640900827;0.0016366185332117311;-0.02240075730242097;-5666.666666666667;5666.644265909365
0.4080000000000003;-760811769.0;-745643741.0;-15.0;-3792.0030895904197;-3792.0050042822936;0.0006783969706702919;-0.050926274184348586;-5000.0;4999.949073725816
0.4120000000000003;-775979783.0;-760811758.0;-11.0;-3792.00325595627;-3792.004325885323;0.00018029490320259356;-0.04159146260462876;-4416.666666666667;4416.625075204062
0.4160000000000003;-791147797.0;-775979774.0;-9.0;-3792.0033390254666;-3792.0041455904197;2.5634149551478913e-05;-0.020767299133694905;-3833.3333333333335;3833.3125660342
0.4200000000000003;-806315811.0;-791147790.0;-7.0;-3792.0033528242793;-3792.00411995627;0.00010893080343521433;-0.003449703172009322;-3250.0;3249.996550296828
0.4240000000000003;-821483825.0;-806315806.0;-5.0;-3792.003329844319;-3792.0040110254668;0.00017820118728195666;0.005744990062339639;-2666.6666666666665;2666.672411656729
0.4280000000000003;-836651839.0;-821483821.0;-4.0;-3792.003297286874;-3792.0038328242795;0.0001189799604617292;0.008139361284520419;-2083.3333333333335;2083.341472694618
0.43200000000000033;-851819853.0;-836651835.0;-4.0;-3792.0032696523144;-3792.003713844319;3.2557445138081675e-05;0.006908639875291556;-1583.3333333333333;1583.3402419732085
0.43600000000000033;-866987867.0;-851819849.0;-4.0;-3792.0032507378032;-3792.003681286874;2.7634559501166223e-05;0.00472862780043215;-1166.6666666666667;1166.6713952944672
0.44000000000000034;-882155880.0;-866987863.0;-4.0;-3792.0032386046514;-3792.0036536523144;1.89145112017286e-05;0.003033287953257968;-833.3333333333334;833.3363666212866
0.44400000000000034;-897323894.0;-882155877.0;-3.0;-3792.0032297927037;-3792.003634737803;0.00010813315157065517;0.002202986934207729;-583.3333333333334;583.3355363202676
0.44800000000000034;-912491908.0;-897323891.0;-3.0;-3792.003221590197;-3792.0035266046516;8.811947736830916e-06;0.0020506266764641623;-333.3333333333333;333.3353839600098
0.45200000000000035;-927659921.0;-912491905.0;-3.0;-3792.0032126438546;-3792.003517792704;8.20250670585665e-06;0.0022365856011674623;-166.66666666666666;166.66890325226782
0.45600000000000035;-942827935.0;-927659919.0;-2.0;-3792.003202670912;-3792.003509590197;0.0001049463426170405;0.0024932356836870895;0.0;0.0024932356836870895
0.46000000000000035;-957995948.0;-942827932.0;-3.0;-3792.003191925834;-3792.0034046438545;-8.602705747762229e-05;0.0026862694539886434;0.0;0.0026862694539886434
0.46400000000000036;-973163962.0;-957995945.0;-3.0;-3792.00318077748;-3792.003490670912;1.0745077815954573e-05;0.0027870885332959006;83.33333333333333;-83.33054624480003
0.46800000000000036;-988331975.0;-973163958.0;-4.0;-3792.003169496834;-3792.003479925834;-8.48516456244397e-05;0.002820161512318009;83.33333333333333;-83.33051317182101
0.47200000000000036;-1003499988.0;-988331972.0;-3.0;-3792.0031582096235;-3792.00356477748;0.00010728064580689534;0.0028218025818205206;83.33333333333333;-83.33051153075151
0.47600000000000037;-1018668002.0;-1003499985.0;-3.0;-3792.003146935448;-3792.003457496834;1.1287210327282082e-05;0.002818543862304068;0.0;0.002818543862304068
0.48000000000000037;-1033836015.0;-1018667998.0;-4.0;-3792.0031356433387;-3792.0034462096237;-8.472582430840703e-05;0.0028230273301232955;0.0;0.0028230273301232955
0.4840000000000004;-1049004028.0;-1033836012.0;-3.0;-3792.003124294726;-3792.003530935448;0.00010729210907811648;0.0028371531470838818;0.0;0.0028371531470838818
0.4880000000000004;-1064172041.0;-1049004025.0;-3.0;-3792.0031128632904;-3792.003423643339;1.1348612588335527e-05;0.0028578589308381197;0.0;0.0028578589308381197
0.4920000000000004;-1079340054.0;-1064172038.0;-3.0;-3792.003101337976;-3792.0034122947263;1.1431435723352479e-05;0.002881328555304208;0.0;0.002881328555304208
0.4960000000000004;-1094508068.0;-1079340051.0;-3.0;-3792.0030897178103;-3792.0034008632906;1.1525314221216831e-05;0.0029050414696030202;0.0;0.0029050414696030202
0.5000000000000003;-1109676081.0;-1094508064.0;-4.0;-3792.00307800697;-3792.0033893379764;-8.437983387921122e-05;0.002927710056610522;0.0;0.002927710056610522
0.5040000000000003;-1124844094.0;-1109676077.0;-4.0;-3792.0030662097265;-3792.0034737178103;1.1710840226442087e-05;0.002949310896838142;0.0;0.002949310896838142
0.5080000000000003;-1140012106.0;-1124844090.0;-4.0;-3792.0030543289995;-3792.00346200697;1.1797243587352568e-05;0.002970181753880752;0.0;0.002970181753880752
0.5120000000000003;-1155180119.0;-1140012103.0;-3.0;-3792.003042366015;-3792.0034502097265;0.00010788072677314631;0.002990746111208864;0.0;0.002990746111208864
0.5160000000000003;-1170348132.0;-1155180116.0;-3.0;-3792.003030321685;-3792.0033423289997;1.1962984444835456e-05;0.0030110825264273444;0.0;0.0030110825264273444
0.5200000000000004;-1185516145.0;-1170348129.0;-3.0;-3792.0030181946886;-3792.0033303660152;1.2044330105709378e-05;0.0030317490882225684;0.0;0.0030317490882225684
0.5240000000000004;-1200684158.0;-1185516142.0;-3.0;-3792.003005986157;-3792.003318321685;1.2126996352890274e-05;0.0030521329108523787;0.0;0.0030521329108523787
0.5280000000000004;-1215852170.0;-1200684155.0;-3.0;-3792.002993695148;-3792.003306194689;1.2208531643409515e-05;0.003072752292609948;0.0;0.003072752292609948
