Zeit[sec];Sollposition[°];Istposition[°];Positionsschleppfehler[°];Sollgeschwindigkeit[°/s];Istgeschwindigkeit[°/s];Geschwindigkeitsdifferenz[°/s];Sollbeschleunigung[°/s*s];Istbeschleunigung[°/s*s];Beschleunigungsdifferenz[°/s*s]
0.0;0.0;4.0;-4.0;-0.0;-0.00023999999999999998;0.0;0.0;0.0;0.0
0.004;0.0;4.0;-4.0;-0.0;-0.00023999999999999998;0.0;0.0;0.0;0.0
0.008;0.0;4.0;-4.0;-0.0;-0.00023999999999999998;0.0;0.0;0.0;0.0
0.012;0.0;4.0;-4.0;-0.0;-0.00023999999999999998;0.0;0.0;0.0;0.0
0.016;0.0;4.0;-4.0;-0.0;-0.00023999999999999998;0.0;0.0;0.0;0.0
0.02;0.0;4.0;-4.0;-0.0;-0.00023999999999999998;0.0;0.0;0.0;0.0
0.024;0.0;4.0;-4.0;-0.0;-0.00023999999999999998;0.0;0.0;0.0;0.0
0.028;0.0;4.0;-4.0;-0.0;-0.00023999999999999998;0.0;0.0;0.0;0.0
0.032;0.0;4.0;-4.0;-0.0;-0.00023999999999999998;0.0;0.0;0.0;0.0
0.036000000000000004;0.0;4.0;-4.0;-0.0;-0.00023999999999999998;0.0;0.0;0.0;0.0
0.04000000000000001;0.0;4.0;-4.0;-0.0;-0.00023999999999999998;0.0;0.0;0.0;0.0
0.04400000000000001;0.0;4.0;-4.0;-0.0;-0.00023999999999999998;0.0;0.0;0.0;0.0
0.048000000000000015;0.0;4.0;-4.0;-0.0;-0.00023999999999999998;0.0;0.0;0.0;0.0
0.05200000000000002;-146.0;4.0;-4.0;-0.03673917756413824;-0.00023999999999999998;0.0;-9.18479439103456;0.0;-9.18479439103456
0.05600000000000002;-1611.0;4.0;-150.0;-0.3661306253260831;-0.00023999999999999998;-0.045499177564138245;-82.34786194048621;0.0;-82.34786194048621
0.060000000000000026;-8809.0;-178.0;-1433.0;-1.7996062669468422;-0.04573917756413824;-0.40637144776194484;-358.3689104051898;0.0;-358.3689104051898
0.06400000000000003;-32603.0;-1986.0;-6823.0;-5.948312329369946;-0.4521106253260831;-1.7568756416207592;-1037.1765156057759;0.0;-1037.1765156057759
0.06800000000000003;-92962.0;-10821.0;-21782.0;-15.089879544184218;-2.2089862669468423;-5.046246062423103;-2285.391803703568;0.0;-2285.391803703568
0.07200000000000004;-219203.0;-39841.0;-53121.0;-31.56027133703425;-7.255232329369946;-11.02190721481427;-4117.5979482125085;0.0;-4117.5979482125085
0.07600000000000004;-447215.0;-112949.0;-106254.0;-57.00287506933322;-18.277139544184216;-19.658371792850033;-6360.650933074742;0.0;-6360.650933074742
0.08000000000000004;-815880.0;-264691.0;-182524.0;-92.16631805220428;-37.93551133703425;-30.01880373229897;-8790.860745717764;-166.66666666666666;-8624.194079051096
0.08400000000000005;-1365261.0;-536508.0;-279372.0;-137.3452758227389;-67.95431506933322;-40.97432298287106;-11294.739442633656;-333.3333333333333;-10961.406109300322
0.08800000000000005;-2136140.0;-972222.0;-393039.0;-192.7196060443037;-108.92863805220428;-51.99897777053461;-13843.582555391202;-583.3333333333334;-13260.249222057868
0.09200000000000005;-3168735.0;-1615932.0;-520208.0;-258.14879969069324;-160.9276158227389;-63.004470221564816;-16357.298411597383;-833.3333333333334;-15523.965078264051
0.09600000000000006;-4500132.0;-2511660.0;-657075.0;-332.84930438167214;-223.9320860443037;-73.64121364638956;-18675.126172744727;-1250.0;-17425.126172744727
0.10000000000000006;-6161907.0;-3701953.0;-798179.0;-415.4437100169257;-297.57329969069326;-83.16674469097887;-20648.601408813392;-1750.0;-18898.601408813392
0.10400000000000006;-8178683.0;-5224913.0;-936994.0;-504.1938481629431;-380.74004438167213;-90.9233056352536;-22187.534536504343;-2333.3333333333335;-19854.20120317101
0.10800000000000007;-10567327.0;-7111566.0;-1067117.0;-597.1611871546461;-471.66335001692573;-96.5575181460174;-23241.83474792575;-3000.0;-20241.83474792575
0.11200000000000007;-13337195.0;-9384449.0;-1182878.0;-692.4668647501804;-568.2208681629431;-99.91299899170292;-23826.419398883587;-3750.0;-20076.419398883587
0.11600000000000008;-16491794.0;-12056984.0;-1280211.0;-788.6496139468763;-668.133867154646;-101.14565759553432;-24045.687299173976;-4500.0;-19545.687299173976
0.12000000000000008;-20031177.0;-15134102.0;-1357692.0;-884.845901021637;-769.2795247501804;-100.83160919669592;-24049.07176869017;-5250.0;-18799.07176869017
0.12400000000000008;-23954043.0;-18614546.0;-1416631.0;-980.7164394125818;-870.1111339468763;-99.73262707476067;-23967.634597736207;-6000.0;-17967.634597736207
0.12800000000000009;-28259036.0;-22493921.0;-1460122.0;-1076.2480581189363;-969.843761021637;-98.47999839094496;-23882.904676588623;-6750.0;-17132.904676588623
0.1320000000000001;-32945278.0;-26767216.0;-1491820.0;-1171.5604295671594;-1068.323759412582;-97.43349870635438;-23828.092862055768;-7583.333333333333;-16244.759528722436
0.1360000000000001;-38012402.0;-31430245.0;-1515033.0;-1266.7809803335758;-1165.7572581189363;-96.7051514482232;-23805.1376916041;-8333.333333333334;-15471.804358270769
0.1400000000000001;-43460372.0;-36480094.0;-1532308.0;-1361.9925055927424;-1262.4624095671595;-96.25705076641634;-23802.881314791648;-9166.666666666666;-14636.214648124982
0.1440000000000001;-49289290.0;-41914971.0;-1545401.0;-1457.2292677907367;-1358.7194603335759;-95.99710525916657;-23809.190549498566;-9833.333333333334;-13975.857216165234
0.1480000000000001;-55499265.0;-47733837.0;-1555453.0;-1552.4938365888277;-1454.7165655927424;-95.83988219799426;-23816.142199522743;-10583.333333333334;-13232.80886618941
0.1520000000000001;-62090368.0;-53936062.0;-1563203.0;-1647.775749130864;-1550.5564477907367;-95.7295687980909;-23820.478135509064;-11333.333333333334;-12487.14480217573
0.1560000000000001;-69062624.0;-60521206.0;-1569162.0;-1743.0637606200803;-1646.2860165888276;-95.63945254203622;-23822.002872304096;-12083.333333333334;-11738.669538970764
0.16000000000000011;-76416028.0;-67488907.0;-1573717.0;-1838.3508714355908;-1741.9254691308638;-95.56131148921645;-23821.777703877615;-12916.666666666666;-10905.111037210949
0.16400000000000012;-84150566.0;-74838854.0;-1577174.0;-1933.6345861659038;-1837.4867806200803;-95.49453081551042;-23820.928682578255;-13583.333333333334;-10237.595349244923
0.16800000000000012;-92266228.0;-82570779.0;-1579787.0;-2028.91521418522;-1932.9813114355907;-95.44049473031305;-23820.15700482907;-14416.666666666666;-9403.490338162404
0.17200000000000013;-100763004.0;-90684466.0;-1581762.0;-2124.194076465349;-2028.4218061659037;-95.39912801931655;-23819.71557003226;-15083.333333333334;-8736.382236698924
0.17600000000000013;-109640894.0;-99179749.0;-1583255.0;-2219.4723868463802;-2123.8209341852203;-95.36844228012887;-23819.577595257782;-15833.333333333334;-7986.244261924449
0.18000000000000013;-118899898.0;-108056506.0;-1584388.0;-2314.7508443550137;-2219.189376465349;-95.34629038103094;-23819.61437715836;-16583.333333333332;-7236.281043825027
0.18400000000000014;-128540017.0;-117314648.0;-1585250.0;-2410.029670407672;-2314.53566684638;-95.33017750863337;-23819.706513164532;-17333.333333333332;-6486.373179831201
0.18800000000000014;-138561253.0;-126954111.0;-1585906.0;-2505.3088096905967;-2409.8658443550135;-95.31818605265835;-23819.784820731227;-18083.333333333332;-5736.451487397897
0.19200000000000014;-148963606.0;-136974847.0;-1586406.0;-2600.5881181477207;-2505.184030407672;-95.30913928292512;-23819.827114280997;-18833.333333333332;-4986.493780947665
0.19600000000000015;-159747076.0;-147376819.0;-1586787.0;-2695.8674725265664;-2600.493169690597;-95.30216845712357;-23819.83859471143;-19583.333333333332;-4236.505261378095
0.20000000000000015;-170911664.0;-158160000.0;-1587076.0;-2791.1468059181807;-2695.7953381477205;-95.29669437884604;-23819.83334790357;-20333.333333333332;-3486.500014570236
0.20400000000000015;-182457369.0;-169324368.0;-1587296.0;-2886.4260999357543;-2791.0920325265665;-95.29253339161414;-23819.82350439341;-20916.666666666668;-2903.156837726744
0.20800000000000016;-194384191.0;-180869906.0;-1587463.0;-2981.7053626686943;-2886.3845659181807;-95.28931401757382;-23819.815683234992;-21583.333333333332;-2236.48234990166
0.21200000000000016;-206692130.0;-192796601.0;-1587590.0;-3076.984609574463;-2981.6738799357545;-95.28688273293983;-23819.811726442138;-22250.0;-1569.8117264421398
0.21600000000000016;-219381186.0;-205104444.0;-1587686.0;-3172.263852998344;-3076.9607626686943;-95.28500690576857;-23819.810855970332;-22750.0;-1069.8108559703314
0.22000000000000017;-232451359.0;-217793427.0;-1587759.0;-3267.5430992198085;-3172.245769574463;-95.28362342388118;-23819.811555366072;-23166.666666666668;-653.1448886994049
0.22400000000000017;-245902649.0;-230863544.0;-1587815.0;-3362.8223496477553;-3267.529392998344;-95.28260622146445;-23819.812606986714;-23416.666666666668;-403.1459403200479
0.22800000000000017;-259735056.0;-244314791.0;-1587858.0;-3458.1016032003663;-3362.8119992198085;-95.28183042794672;-23819.81338815274;-23750.0;-69.8133881527383
0.23200000000000018;-273948580.0;-258147166.0;-1587890.0;-3553.3808582261545;-3458.0938296477552;-95.28117355261111;-23819.813756447045;-23916.666666666668;96.85291021962075
0.23600000000000018;-288543222.0;-272360666.0;-1587914.0;-3648.660113491916;-3553.3750032003663;-95.28069502578819;-23819.813816440386;-24083.333333333332;263.5195168929449
0.24000000000000019;-303518980.0;-286955288.0;-1587934.0;-3743.939368412777;-3648.6556982261545;-95.2804552657617;-23819.813730215286;-24083.333333333332;263.51960311804487
0.2440000000000002;-318875842.0;-301931032.0;-1587948.0;-3839.2154664159966;-3743.9361534919162;-95.28009492086085;-23819.02450080486;-24083.333333333332;264.30883252847434
0.2480000000000002;-334613728.0;-317287896.0;-1587946.0;-3934.471155379003;-3839.216248412777;-95.27597800321973;-23813.922240751595;-24000.0;186.07775924840553
0.25200000000000017;-350732388.0;-333025864.0;-1587864.0;-4029.6649664247625;-3934.492226415997;-95.25076896300607;-23798.452761439876;-24000.0;201.54723856012424
0.25600000000000017;-367230950.0;-349144835.0;-1587553.0;-4124.640335671457;-4029.742995379003;-95.17515104575932;-23743.84231167369;-23916.666666666668;172.82435499297935
0.2600000000000002;-384106180.0;-365644507.0;-1586443.0;-4218.807088231562;-4124.918146424762;-94.90876924669465;-23541.68814002628;-23916.666666666668;374.9785266403869
0.2640000000000002;-401349554.0;-382523814.0;-1582366.0;-4310.84336539762;-4219.826915671457;-93.92213256010564;-23009.06929151438;-23833.333333333332;824.264041818953
0.2680000000000002;-418944998.0;-399778810.0;-1570744.0;-4398.8608505474185;-4313.7490482315625;-91.3389571660573;-22004.371287449656;-23916.666666666668;1912.2953792170101
0.2720000000000002;-436868409.0;-417399162.0;-1545836.0;-4480.852392163978;-4405.08800539762;-86.52300514979834;-20497.88540413988;-23833.333333333332;3335.447929193453
0.2760000000000002;-455088406.0;-435365606.0;-1502803.0;-4554.999057156004;-4491.611010547418;-79.40956161655959;-18536.66624800644;-23833.333333333332;5296.6670853268915
0.2800000000000002;-473567814.0;-453649688.0;-1438718.0;-4619.851766552601;-4571.020572163978;-70.30156499202621;-16213.177349149191;-23666.666666666668;7453.489317517477
0.2840000000000002;-492265681.0;-472214976.0;-1352838.0;-4674.466738950213;-4641.322137156004;-59.69990939659692;-13653.743099403073;-23583.333333333332;9929.59023393026
0.2880000000000002;-511139311.0;-491019064.0;-1246617.0;-4718.407210471981;-4701.022046552601;-48.24171239761199;-10985.117880441976;-23333.333333333332;12348.215452891356
0.2920000000000002;-530146112.0;-510016119.0;-1123192.0;-4751.699898455056;-4749.263758950213;-36.53497152176806;-8323.171995768917;-23083.333333333332;14760.161337564416
0.2960000000000002;-549246059.0;-529159313.0;-986799.0;-4774.986563770147;-4785.798730471981;-25.109107983075774;-5821.666328772608;-22666.666666666668;16845.00033789406
0.3000000000000002;-568404830.0;-548402944.0;-843115.0;-4789.692497067365;-4810.907838455057;-14.665625315090438;-3676.483324304627;-22250.0;18573.516675695373
0.3040000000000002;-587595996.0;-567705237.0;-699593.0;-4797.791389679307;-4825.573463770147;-6.09461329721853;-2024.7231529854162;-21750.0;19725.276847014582
0.3080000000000002;-606801345.0;-587031909.0;-564087.0;-4801.33691667969;-4831.668077067366;0.03146738805844507;-886.3817500957794;-21083.333333333332;20196.951583237555
0.3120000000000002;-626009994.0;-606358455.0;-442890.0;-4802.162096427506;-4831.636609679307;3.726292999616817;-206.29493695400924;-20416.666666666668;20210.371729712657
0.3160000000000002;-645216857.0;-625670096.0;-339898.0;-4801.7155766216365;-4827.91031667969;5.3543402521845564;111.62995146742105;-19666.666666666668;19778.29661813409
0.32000000000000023;-664420657.0;-644960319.0;-256538.0;-4800.949590152812;-4822.555976427506;5.448119805869283;191.49661720621225;-18916.666666666668;19108.16328387288
0.32400000000000023;-683621998.0;-664228750.0;-191907.0;-4800.335155808518;-4817.1078566216365;4.643846468824449;153.60858607346017;-18083.333333333332;18236.941919406792
0.32800000000000024;-702821993.0;-683478606.0;-143392.0;-4799.998468797984;-4812.464010152812;3.525334344294606;84.17175263343779;-17333.333333333332;17417.505085966768
0.33200000000000024;-722021543.0;-702714360.0;-107633.0;-4799.887190447134;-4808.9386758085175;2.482227010533279;27.819587712428984;-16583.333333333332;16611.15292104576
0.33600000000000024;-741221138.0;-721940185.0;-81358.0;-4799.898608450469;-4806.456448797984;1.6877783508498396;-2.8545008335640887;-15833.333333333334;15830.47883249977
0.34000000000000025;-760420932.0;-741159259.0;-61879.0;-4799.948382913516;-4804.768670447134;1.1573219966658144;-12.443615761867477;-15000.0;14987.556384238133
0.34400000000000025;-779620896.0;-760373704.0;-47228.0;-4799.990750103095;-4803.6113484504685;0.8292855369527388;-10.591797394681635;-14250.0;14239.408202605318
0.34800000000000025;-798820945.0;-779584832.0;-36064.0;-4800.011979403438;-4802.782062913516;0.6274728104208407;-5.307325085823322;-13416.666666666666;13411.359341580843
0.35200000000000026;-818021009.0;-798793450.0;-27495.0;-4800.015713522576;-4802.154590103095;0.4929106996569317;-0.9335297845609603;-12666.666666666666;12665.733136882105
0.35600000000000026;-837221052.0;-818000096.0;-20913.0;-4800.010667291397;-4801.661679403438;0.3911858808614852;1.2615577948054124;-11916.666666666666;11917.928224461471
0.36000000000000026;-856421069.0;-837205177.0;-15875.0;-4800.003946242606;-4801.2704935225765;0.30732623117910407;1.6802621978513343;-11250.0;11251.680262197851
0.36400000000000027;-875621067.0;-856409029.0;-12040.0;-4799.999126524001;-4800.963167291397;0.23682104879208055;1.2049296510667773;-10500.0;10501.204929651067
0.36800000000000027;-894821055.0;-875611934.0;-9133.0;-4799.996928183582;-4800.726346242605;0.17923971860363963;0.5495851048635814;-9750.0;9750.549585104864
0.3720000000000003;-914021043.0;-894814122.0;-6933.0;-4799.996628597673;-4800.547106524002;0.13419834041997092;0.07489647714464809;-9000.0;9000.074896477145
0.3760000000000003;-933221032.0;-914015773.0;-5270.0;-4799.99720291912;-4800.412908183582;0.1000795859081336;-0.1435803617368947;-8250.0;8249.856419638263
0.3800000000000003;-952421025.0;-933217024.0;-4008.0;-4799.997902547703;-4800.312828597674;0.07514567855287169;-0.1749071457197715;-7500.0;7499.82509285428
0.3840000000000003;-971621019.0;-952417974.0;-3051.0;-4799.9983801637845;-4800.237682919121;0.056720371417213755;-0.11940402032450947;-6833.333333333333;6833.2139293130085
0.3880000000000003;-990821014.0;-971618697.0;-2322.0;-4799.998583721947;-4800.1809625477035;0.043262383918772684;-0.050889540716525516;-6083.333333333333;6083.2824437926165
0.3920000000000003;-1010021010.0;-990819247.0;-1767.0;-4799.99859917852;-4800.137700163785;0.03309644183718774;-0.0038641430819552625;-5333.333333333333;5333.329469190251
0.3960000000000003;-1029221005.0;-1010019665.0;-1345.0;-4799.998533996425;-4800.104603721948;0.025304543427409953;0.01629552366466669;-4500.0;4500.016295523665
0.4000000000000003;-1048421000.0;-1029219982.0;-1023.0;-4799.998462325014;-4800.07929917852;0.01938518209499307;0.01791785280147451;-3750.0;3750.0179178528015
0.4040000000000003;-1067620994.0;-1048420221.0;-779.0;-4799.998416147529;-4800.059913996425;0.014711671411532734;0.01154437131845043;-3083.3333333333335;3083.344877704652
0.4080000000000003;-1086820989.0;-1067620401.0;-593.0;-4799.998398199501;-4800.045202325014;0.011206177485291846;0.004487006890485645;-2416.6666666666665;2416.671153673557
0.4120000000000003;-1106020983.0;-1086820536.0;-453.0;-4799.99839852169;-4800.033996147528;0.00841794802727236;-8.05473518994404e-05;-1833.3333333333333;1833.3332527859814
0.4160000000000003;-1125220978.0;-1106020638.0;-345.0;-4799.99840600067;-4800.025578199501;0.00647967781060288;-0.001869744892246672;-1250.0;1249.9981302551078
0.4200000000000003;-1144420972.0;-1125220714.0;-264.0;-4799.9984134106935;-4800.0190985216905;0.004852521020438871;-0.001852505874921917;-833.3333333333334;833.3314808274584
0.4240000000000003;-1163620967.0;-1144420770.0;-202.0;-4799.998417899188;-4800.01424600067;0.0037125899762031622;-0.0011221236491110176;-416.6666666666667;416.6655445430176
0.4280000000000003;-1182820961.0;-1163620812.0;-155.0;-4799.998419470699;-4800.010533410694;0.0028155115060144453;-0.00039287783692998346;-166.66666666666666;166.66627378882973
0.43200000000000033;-1202020956.0;-1182820842.0;-119.0;-4799.998419266826;-4800.007717899188;0.0021584284886557725;5.096831046103034e-05;83.33333333333333;-83.33328236502287
0.43600000000000033;-1221220951.0;-1202020864.0;-92.0;-4799.998418434984;-4800.005559470699;0.0016202038732444635;0.0002079605110338889;166.66666666666666;-166.66645870615562
0.44000000000000034;-1240420945.0;-1221220879.0;-72.0;-4799.998417678266;-4800.003939266826;0.001200831841742911;0.00018917944544227794;250.0;-249.99981082055456
0.44400000000000034;-1259620940.0;-1240420889.0;-56.0;-4799.998417246856;-4800.002738434984;0.0009607567180864862;0.00010785265658341814;250.0;-249.99989214734342
0.44800000000000034;-1278820934.0;-1259620896.0;-44.0;-4799.998417113464;-4800.001777678266;0.0007204314106274978;3.334798748255707e-05;166.66666666666666;-166.66663331867917
0.45200000000000035;-1298020929.0;-1278820900.0;-34.0;-4799.99841715093;-4800.001057246855;0.0006001333913445706;-9.366658559883945e-06;166.66666666666666;-166.66667603332522
0.45600000000000035;-1317220924.0;-1298020901.0;-28.0;-4799.998417241831;-4800.000457113464;0.00035996253336634254;-2.272508936584927e-05;83.33333333333333;-83.3333560584227
0.46000000000000035;-1336420918.0;-1317220901.0;-23.0;-4799.998417318418;-4800.000097150931;0.00029990910024935147;-1.914690983539913e-05;166.66666666666666;-166.6666858135765
0.46400000000000036;-1355620913.0;-1336420900.0;-18.0;-4799.998417359575;-4799.9997972418305;0.00029992341205797857;-1.0289113561157137e-05;83.33333333333333;-83.33334362244689
0.46800000000000036;-1374820907.0;-1355620897.0;-16.0;-4799.998417370261;-4799.999497318418;0.0001199588432427845;-2.6716406864579767e-06;83.33333333333333;-83.33333600497402
0.47200000000000036;-1394020902.0;-1374820894.0;-13.0;-4799.998417364791;-4799.999377359575;0.0001799893134375452;1.3676526577910408e-06;0.0;1.3676526577910408e-06
0.47600000000000037;-1413220896.0;-1394020890.0;-12.0;-4799.998417354995;-4799.999197370262;6.000547091389308e-05;2.4490418581990525e-06;0.0;2.4490418581990525e-06
0.48000000000000037;-1432420891.0;-1413220886.0;-10.0;-4799.998417347489;-4799.999137364791;0.00012000979586446192;1.8765149434329942e-06;0.0;1.8765149434329942e-06
0.4840000000000004;-1451620886.0;-1432420882.0;-9.0;-4799.998417343418;-4799.999017354995;6.0007506363035645e-05;1.0177245712839067e-06;0.0;1.0177245712839067e-06
0.4880000000000004;-1470820880.0;-1451620877.0;-9.0;-4799.998417342655;-4799.998957347489;4.070898285135627e-09;1.907665136968717e-07;0.0;1.907665136968717e-07
0.4920000000000004;-1490020875.0;-1470820872.0;-8.0;-4799.998417343482;-4799.998957343418;6.00007633693167e-05;-2.0691004465334117e-07;0.0;-2.0691004465334117e-07
0.4960000000000004;-1509220869.0;-1490020867.0;-8.0;-4799.998417344435;-4799.998897342654;-8.276401786133647e-10;-2.382876118645072e-07;0.0;-2.382876118645072e-07
0.5000000000000003;-1528420864.0;-1509220862.0;-7.0;-4799.9984173451985;-4799.998897343482;5.9999046243319754e-05;-1.907665136968717e-07;0.0;-1.907665136968717e-07
