Zeit[sec];Sollposition[°];Istposition[°];Positionsschleppfehler[°];Sollgeschwindigkeit[°/s];Istgeschwindigkeit[°/s];Geschwindigkeitsdifferenz[°/s];Sollbeschleunigung[°/s*s];Istbeschleunigung[°/s*s];Beschleunigungsdifferenz[°/s*s]
0.0;-9979199999.0;-9979199995.0;-4.0;0.0;-0.00023999999999999998;0.0;0.0;0.0;0.0
0.004;-9979199999.0;-9979199995.0;-4.0;0.0;-0.00023999999999999998;0.0;0.0;0.0;0.0
0.008;-9979199999.0;-9979199995.0;-4.0;0.0;-0.00023999999999999998;0.0;0.0;0.0;0.0
0.012;-9979199999.0;-9979199995.0;-4.0;0.0;-0.00023999999999999998;0.0;0.0;0.0;0.0
0.016;-9979199999.0;-9979199995.0;-4.0;0.0;-0.00023999999999999998;0.0;0.0;0.0;0.0
0.02;-9979199999.0;-9979199995.0;-4.0;0.0;-0.00023999999999999998;0.0;0.0;0.0;0.0
0.024;-9979199999.0;-9979199995.0;-4.0;0.0;-0.00023999999999999998;0.0;0.0;0.0;0.0
0.028;-9979199999.0;-9979199995.0;-4.0;0.0;-0.00023999999999999998;0.0;0.0;0.0;0.0
0.032;-9979199999.0;-9979199995.0;-4.0;0.0;-0.00023999999999999998;0.0;0.0;0.0;0.0
0.036000000000000004;-9979199999.0;-9979199995.0;-4.0;0.0;-0.00023999999999999998;0.0;0.0;0.0;0.0
0.04000000000000001;-9979199999.0;-9979199995.0;-4.0;0.0;-0.00023999999999999998;0.0;0.0;0.0;0.0
0.04400000000000001;-9979199999.0;-9979199995.0;-4.0;0.0;-0.00023999999999999998;0.0;0.0;0.0;0.0
0.048000000000000015;-9979199999.0;-9979199995.0;-4.0;0.0;-0.00023999999999999998;0.0;0.0;0.0;0.0
0.05200000000000002;-9979199999.0;-9979199995.0;-4.0;0.0;-0.00023999999999999998;0.0;0.0;0.0;0.0
0.05600000000000002;-9979199999.0;-9979199995.0;-4.0;0.0;-0.00023999999999999998;0.0;0.0;0.0;0.0
0.060000000000000026;-9979200148.0;-9979199995.0;-4.0;-0.03719180807111039;-0.00023999999999999998;0.0;-9.297952017777597;0.0;-9.297952017777597
0.06400000000000003;-9979201631.0;-9979199995.0;-153.0;-0.37064139376576727;-0.00023999999999999998;-0.04613180807111039;-83.36239642366422;0.0;-83.36239642366422
0.06800000000000003;-9979208918.0;-9979200180.0;-1451.0;-1.8217776071100666;-0.04637180807111039;-0.41132958569465683;-362.78405333607486;0.0;-362.78405333607486
0.07200000000000004;-9979335127.0;-9979202010.0;-6908.0;-31.552348057230265;-0.45770139376576724;-1.7785562133442991;-7432.6426125300495;0.0;-7432.6426125300495
0.07600000000000004;-9979499574.0;-9979210955.0;-124172.0;-41.11165207814802;-2.2362576071100664;-36.7664104501202;-2389.8260052294386;0.0;-2389.8260052294386
0.08000000000000004;-9979766759.0;-9979366965.0;-132609.0;-66.796157935201;-39.00266805723027;-10.06552402091775;-6421.126464263244;-83.33333333333333;-6337.793130929911
0.08400000000000005;-9980154677.0;-9979563237.0;-203522.0;-96.97968796884724;-49.068192078148016;-29.93928585705298;-7545.882508411562;-166.66666666666666;-7379.215841744895
0.08800000000000005;-9980682075.0;-9979879266.0;-275411.0;-131.84939400157955;-79.007477935201;-34.496870033646246;-8717.426508183078;-416.6666666666667;-8300.75984151641
0.09200000000000005;-9981377485.0;-9980333283.0;-348792.0;-173.85244763056681;-113.50434796884724;-39.2725660327323;-10500.763407246815;-583.3333333333334;-9917.430073913481
0.09600000000000006;-9982279777.0;-9980944390.0;-433095.0;-225.57299171104634;-152.77691400157954;-47.06123362898728;-12930.136020119882;-916.6666666666666;-12013.469353453214
0.10000000000000006;-9983429058.0;-9981743742.0;-536035.0;-287.3201845160999;-199.83814763056682;-57.8969440804795;-15436.798201263393;-1166.6666666666667;-14270.131534596727
0.10400000000000006;-9984862364.0;-9982774682.0;-654376.0;-358.32661281154816;-257.7350917110463;-68.8476528050536;-17751.607073862062;-1583.3333333333333;-16168.273740528728
0.10800000000000007;-9986611569.0;-9984081012.0;-781352.0;-437.3012259412966;-326.5827445160999;-78.62498829544825;-19743.65328243711;-2083.3333333333335;-17660.319949103774
0.11200000000000007;-9988699855.0;-9985701842.0;-909727.0;-522.0715152103572;-405.20773281154817;-86.67711312974842;-21192.57231726516;-2583.3333333333335;-18609.238983931828
0.11600000000000008;-9991144298.0;-9987669381.0;-1030474.0;-611.1105679973024;-491.8848459412966;-92.01510926906064;-22259.763196736287;-3250.0;-19009.763196736287
0.12000000000000008;-9993956013.0;-9990004980.0;-1139318.0;-702.9286842558577;-583.8999552103572;-95.5696927869451;-22954.52906463882;-3833.3333333333335;-19121.195731305485
0.12400000000000008;-9997136637.0;-9992722858.0;-1233155.0;-795.1559998300798;-679.4696479973023;-97.44833625855529;-23056.828893555547;-4583.333333333333;-18473.495560222214
0.12800000000000009;-10000681041.0;-9995830529.0;-1306108.0;-886.1010488964198;-776.9179842558576;-96.60449557422226;-22736.26226658499;-5250.0;-17486.26226658499
0.1320000000000001;-10004577814.0;-9999324618.0;-1356423.0;-974.193239583268;-873.5224798300799;-93.96394906633986;-22023.04767171205;-6083.333333333333;-15939.714338378717
0.1360000000000001;-10008806059.0;-10003194563.0;-1383251.0;-1057.061085441849;-967.4864288964197;-89.70187068684822;-20716.96146464524;-6833.333333333333;-13883.628131311903
0.1400000000000001;-10013338494.0;-10007423316.0;-1382743.0;-1133.1088404361828;-1057.188299583268;-82.83736585858105;-19011.938748583474;-7583.333333333333;-11428.605415250142
0.1440000000000001;-10018145068.0;-10011983418.0;-1355076.0;-1201.6434456371949;-1140.025665441849;-74.38773499433387;-17133.65130025301;-8250.0;-8883.651300253006
0.1480000000000001;-10023192444.0;-10016841071.0;-1303997.0;-1261.843837623726;-1214.4134004361829;-65.469865201012;-15050.097996632758;-8916.666666666666;-6133.431329966092
0.1520000000000001;-10028443371.0;-10021960604.0;-1231840.0;-1312.7317366079965;-1279.8832656371949;-55.870971986531;-12721.974746067644;-9500.0;-3221.9747460676444
0.1560000000000001;-10033860081.0;-10027303620.0;-1139751.0;-1354.177333492593;-1335.7542376237259;-45.36255898427066;-10361.399221149157;-9916.666666666666;-444.7325544824903
0.16000000000000011;-10039408337.0;-10032828087.0;-1031994.0;-1387.0639958625488;-1381.1167966079965;-34.98017688459663;-8221.665592488933;-10333.333333333334;2111.6677408444016
0.16400000000000012;-10045055426.0;-10038492474.0;-915863.0;-1411.7721045713276;-1416.0969734925932;-25.918802369955756;-6177.027177194703;-10750.0;4572.972822805297
0.16800000000000012;-10050771234.0;-10044260537.0;-794889.0;-1428.9519515859884;-1442.015775862549;-17.449668708778745;-4294.961753665177;-11083.333333333334;6788.371579668157
0.17200000000000013;-10056533226.0;-10050098398.0;-672836.0;-1440.4979547462738;-1459.4654445713277;-9.856667014660616;-2886.500790071352;-11250.0;8363.499209928648
0.17600000000000013;-10062324697.0;-10055975686.0;-557540.0;-1447.8677131422162;-1469.3221115859883;-4.628243160285365;-1842.4395989856066;-11333.333333333334;9490.893734347726
0.18000000000000013;-10068131896.0;-10061871487.0;-453210.0;-1451.7996969496428;-1473.9503547462737;-1.1099583959426127;-982.9959518566511;-11416.666666666666;10433.670714810014
0.18400000000000014;-10073944764.0;-10067771728.0;-360168.0;-1453.2170246284413;-1475.0603131422163;1.6505361925735542;-354.3319196996322;-11500.0;11145.668080300367
0.18800000000000014;-10079757505.0;-10073665367.0;-279397.0;-1453.18513792895;-1473.4097769496427;3.4289323212015006;7.971674872806034;-11583.333333333334;11591.30500820614
0.19200000000000014;-10085567887.0;-10079545290.0;-212215.0;-1452.595293199494;-1469.9808446284412;4.062806699491148;147.46118236399752;-11500.0;11647.461182363997
0.19600000000000015;-10091375865.0;-10085408962.0;-158925.0;-1451.9944346305604;-1465.91803792895;3.787244729456006;150.21464223343628;-11500.0;11650.214642233437
0.20000000000000015;-10097182280.0;-10091257485.0;-118380.0;-1451.603865594852;-1462.130793199494;3.033558568933813;97.6422589270669;-11416.666666666666;11514.308925593734
0.20400000000000015;-10102988021.0;-10097093873.0;-88407.0;-1451.4350774812626;-1459.0972346305603;2.1889490357082195;42.19702839736783;-11416.666666666666;11458.863695064034
0.20800000000000016;-10108793667.0;-10102921506.0;-66515.0;-1451.4114796870122;-1456.908285594852;1.4823081135893972;5.899448562615817;-11333.333333333334;11339.23278189595
0.21200000000000016;-10114599466.0;-10108743209.0;-50458.0;-1451.4497561849776;-1455.4259774812626;0.9870177942505052;-9.569124491349612;-11166.666666666666;11157.097542175317
0.21600000000000016;-10120405447.0;-10114560964.0;-38502.0;-1451.4949685437682;-1454.4389596870121;0.679083502034473;-11.303089697662472;-11000.0;10988.696910302337
0.22000000000000017;-10126211542.0;-10120376003.0;-29444.0;-1451.5238933984267;-1453.7598761849777;0.49826764120939515;-7.231213664624647;-10750.0;10742.768786335375
0.22400000000000017;-10132017680.0;-10126189049.0;-22493.0;-1451.5343681688946;-1453.2616085437683;0.3881351453414936;-2.618692616977114;-10416.666666666666;10414.047974049688
0.22800000000000017;-10137823813.0;-10132000542.0;-17138.0;-1451.5331016982818;-1452.8734733984268;0.3108252295321563;0.31661765319768165;-10083.333333333334;10083.649950986532
0.23200000000000018;-10143629923.0;-10137810792.0;-13021.0;-1451.5275248618611;-1452.5626481688946;0.24828647061281117;1.3942091051717398;-9750.0;9751.394209105172
0.23600000000000018;-10149436013.0;-10143620049.0;-9874.0;-1451.5223582827332;-1452.3143616982818;0.19439683642076488;1.2916447819861787;-9333.333333333334;9334.62497811532
0.24000000000000019;-10155242091.0;-10149428528.0;-7485.0;-1451.5193541434323;-1452.119964861861;0.14850657912779752;0.751034825213992;-8833.333333333334;8834.084368158548
0.2440000000000002;-10161048164.0;-10155236413.0;-5678.0;-1451.5183778086407;-1451.9714582827332;0.11142413930087969;0.24408369790762663;-8166.666666666667;8166.910750364575
0.2480000000000002;-10166854239.0;-10161043853.0;-4311.0;-1451.5185873887365;-1451.8600341434324;0.08299633479168733;-0.05239502394260853;-7500.0;7499.947604976058
0.25200000000000017;-10172660316.0;-10166850961.0;-3278.0;-1451.5191850368292;-1451.7770378086407;0.0617704199041782;-0.14941202317686475;-6750.0;6749.850587976824
0.25600000000000017;-10178466395.0;-10172657822.0;-2494.0;-1451.5197011345995;-1451.7152673887365;0.04644235190721702;-0.12902444257179013;-6000.0;5999.870975557428
0.2600000000000002;-10184272475.0;-10178464497.0;-1898.0;-1451.5199800768034;-1451.6688250368293;0.03524390222969487;-0.06973555099420992;-5250.0;5249.930264449005
0.2640000000000002;-10190078556.0;-10184271031.0;-1444.0;-1451.520052189274;-1451.6335811345996;0.026961057796142995;-0.018028117665380705;-4500.0;4499.981971882335
0.2680000000000002;-10195884636.0;-10190077457.0;-1099.0;-1451.5200101195785;-1451.6066200768034;0.020627887529371947;0.010517423902456358;-3750.0;3750.0105174239025
0.2720000000000002;-10201690716.0;-10195883800.0;-836.0;-1451.519935245781;-1451.585992189274;0.01582206969555955;0.018718449382504332;-3083.3333333333335;3083.352051782716
0.2760000000000002;-10207496796.0;-10201690080.0;-636.0;-1451.5198727240884;-1451.5701701195785;0.012074873797473629;0.015630423149559647;-2500.0;2500.0156304231496
0.2800000000000002;-10213302876.0;-10207496312.0;-484.0;-1451.5198356853748;-1451.558095245781;0.009182521692764567;0.009259678392936621;-1916.6666666666667;1916.6759263450597
0.2840000000000002;-10219108955.0;-10213302507.0;-369.0;-1451.5198193892177;-1451.5489127240883;0.0069370387134313205;0.0040740392819316185;-1416.6666666666667;1416.6707407059487
0.2880000000000002;-10224915035.0;-10219108674.0;-281.0;-1451.5198138391527;-1451.5419756853748;0.005296296157212055;0.001387516249451437;-916.6666666666666;916.6680541829161
0.2920000000000002;-10230721114.0;-10224914820.0;-215.0;-1451.5198108565157;-1451.5366793892176;0.003965550065004209;0.0007456592356902547;-583.3333333333334;583.3340789925691
0.2960000000000002;-10236527194.0;-10230720950.0;-164.0;-1451.5198061830351;-1451.5327138391526;0.0030629826369477087;0.0011683701472975372;-250.0;250.0011683701473
0.3000000000000002;-10242333273.0;-10236527068.0;-126.0;-1451.5197987816975;-1451.5296508565157;0.0022846734805170854;0.0018503343994780153;-83.33333333333333;83.3351836677328
0.3040000000000002;-10248139353.0;-10242333177.0;-96.0;-1451.5197893121062;-1451.5273661830352;0.0018074013376008224;0.0023673978262195305;83.33333333333333;-83.33096593550711
0.3080000000000002;-10253945432.0;-10248139279.0;-74.0;-1451.5197788433015;-1451.5255587816976;0.0013294695913828036;0.0026172011757807923;83.33333333333333;-83.33071613215755
0.3120000000000002;-10259751511.0;-10253945375.0;-57.0;-1451.5197681984873;-1451.5242293121062;0.0010304688046289812;0.002661203552634106;166.66666666666666;-166.66400546311402
0.3160000000000002;-10265557591.0;-10259751467.0;-44.0;-1451.519757775272;-1451.5231988433015;0.0007906448142875888;0.002605803842925525;166.66666666666666;-166.66406086282373
0.32000000000000023;-10271363670.0;-10265557556.0;-35.0;-1451.5197476498292;-1451.5224081984873;0.0005504232153725752;0.002531360678403871;166.66666666666666;-166.66413530598825
0.32400000000000023;-10277169749.0;-10271363643.0;-27.0;-1451.5197377387722;-1451.5218577752719;0.0004901254426386004;0.00247776426931523;166.66666666666666;-166.66418890239734
0.32800000000000024;-10282975828.0;-10277169728.0;-21.0;-1451.5197279292809;-1451.5213676498292;0.000369911057077843;0.002452372825700877;83.33333333333333;-83.33088096050763
0.33200000000000024;-10288781907.0;-10282975811.0;-17.0;-1451.519718140853;-1451.5209977387722;0.0002498094913789828;0.0024471069650644495;83.33333333333333;-83.33088622636826
0.33600000000000024;-10294587987.0;-10288781893.0;-14.0;-1451.5197083365556;-1451.5207479292808;0.00018978842786054884;0.0024510743514838396;0.0;0.0024510743514838396
0.34000000000000025;-10300394066.0;-10294587975.0;-12.0;-1451.5196985111945;-1451.520558140853;0.00012980429733033816;0.002456340268963686;83.33333333333333;-83.33087699306436
0.34400000000000025;-10306200145.0;-10300394056.0;-10.0;-1451.5196886751576;-1451.5204283365556;0.00012982536100025754;0.0024590092380094575;83.33333333333333;-83.33087432409532
0.34800000000000025;-10312006224.0;-10306200137.0;-8.0;-1451.5196788408523;-1451.5202985111946;0.0001298360371038143;0.0024585763185314136;83.33333333333333;-83.3308747570148
0.35200000000000026;-10317812303.0;-10312006217.0;-7.0;-1451.5196690186651;-1451.5201686751575;6.983430512264022e-05;0.002455546791679808;0.0;0.002455546791679808
0.35600000000000026;-10323618382.0;-10317812297.0;-6.0;-1451.5196592083084;-1451.5200988408524;6.982218724260747e-05;0.0024525891717530612;0.0;0.0024525891717530612
0.36000000000000026;-10329424460.0;-10323618377.0;-5.0;-1451.5196494129555;-1451.5200290186651;6.981035676290048e-05;0.002448838245072693;0.0;0.002448838245072693
0.36400000000000027;-10335230539.0;-10329424456.0;-4.0;-1451.5196396305869;-1451.5199592083084;6.979535282880533e-05;0.002445592144795228;0.0;0.002445592144795228
0.36800000000000027;-10341036618.0;-10335230535.0;-4.0;-1451.519629861203;-1451.5198894129555;9.782368579180911e-06;0.0024423459876743436;0.0;0.0024423459876743436
0.3720000000000003;-10346842697.0;-10341036614.0;-4.0;-1451.5196201036488;-1451.519879630587;9.769383950697375e-06;0.0024393885382778535;0.0;0.0024393885382778535
0.3760000000000003;-10352648776.0;-10346842693.0;-4.0;-1451.5196103573478;-1451.519869861203;9.757554153111414e-06;0.0024365752437915944;0.0;0.0024365752437915944
0.3800000000000003;-10358454854.0;-10352648772.0;-4.0;-1451.5196006228769;-1451.5198601036489;9.746300975166378e-06;0.0024336177375516854;0.0;0.0024336177375516854
0.3840000000000003;-10364260933.0;-10358454851.0;-3.0;-1451.5195909005247;-1451.5198503573479;6.973447102609498e-05;0.002430588040169823;0.0;0.002430588040169823
0.3880000000000003;-10370067011.0;-10364260930.0;-3.0;-1451.5195811946196;-1451.5197806228769;9.722352160679293e-06;0.0024264762714665267;0.0;0.0024264762714665267
0.3920000000000003;-10375873090.0;-10370067009.0;-2.0;-1451.5195714996785;-1451.5197709005247;6.970590516175434e-05;0.0024237352818090585;0.0;0.0024237352818090585
0.3960000000000003;-10381679169.0;-10375873087.0;-3.0;-1451.519561817145;-1451.5197011946195;-5.0305058948652004e-05;0.002420633393285243;0.0;0.002420633393285243
0.4000000000000003;-10387485247.0;-10381679166.0;-3.0;-1451.5195521499038;-1451.5197514996785;9.682533573140972e-06;0.0024168102754629217;0.0;0.0024168102754629217
0.4040000000000003;-10393291325.0;-10387485244.0;-3.0;-1451.5195424962242;-1451.519741817145;9.667241101851687e-06;0.0024134199065883877;0.0;0.0024134199065883877
0.4080000000000003;-10399097404.0;-10393291322.0;-3.0;-1451.519532856683;-1451.5197321499038;9.65367962635355e-06;0.002409885269116785;0.0;0.002409885269116785
0.4120000000000003;-10404903482.0;-10399097400.0;-4.0;-1451.519523232723;-1451.5197224962242;-5.03604589994211e-05;0.002405990016995929;0.0;0.002405990016995929
0.4160000000000003;-10410709561.0;-10404903479.0;-3.0;-1451.5195136243442;-1451.5197728566832;6.962396014387195e-05;0.0024020947080316546;0.0;0.0024020947080316546
0.4200000000000003;-10416515639.0;-10410709557.0;-4.0;-1451.5195040257754;-1451.519703232723;-5.039162124376162e-05;0.002399642198724905;0.0;0.002399642198724905
0.4240000000000003;-10422321717.0;-10416515636.0;-3.0;-1451.5194944491361;-1451.5197536243443;6.959856887078786e-05;0.0023941598215060367;0.0;0.0023941598215060367
0.4280000000000003;-10428127795.0;-10422321714.0;-3.0;-1451.5194848863462;-1451.5196840257754;9.576639286024147e-06;0.002390697488863225;0.0;0.002390697488863225
0.43200000000000033;-10433933873.0;-10428127792.0;-3.0;-1451.5194753379837;-1451.5196744491361;9.5627899554529e-06;0.00238709060340625;0.0;0.00238709060340625
0.43600000000000033;-10439739952.0;-10433933870.0;-3.0;-1451.5194658069336;-1451.5196648863462;9.548362413625e-06;0.002382762545494188;0.0;0.002382762545494188
0.44000000000000034;-10445546030.0;-10439739948.0;-4.0;-1451.5194562914644;-1451.5196553379837;-5.0468949893911486e-05;0.0023788672933733324;0.0;0.0023788672933733324
0.44400000000000034;-10451352108.0;-10445546026.0;-4.0;-1451.519446793885;-1451.5197058069336;9.51546917349333e-06;0.002374394853177364;0.0;0.002374394853177364
0.44800000000000034;-10457158186.0;-10451352104.0;-4.0;-1451.5194373113095;-1451.5196962914645;9.497579412709456e-06;0.002370643869653577;0.0;0.002370643869653577
0.45200000000000035;-10462964264.0;-10457158182.0;-4.0;-1451.5194278477775;-1451.519686793885;9.482575478614308e-06;0.002365883005950309;0.0;0.002365883005950309
0.45600000000000035;-10468770342.0;-10462964260.0;-4.0;-1451.5194184009808;-1451.5196773113096;9.463532023801235e-06;0.002361699159791897;0.0;0.002361699159791897
0.46000000000000035;-10474576420.0;-10468770338.0;-4.0;-1451.519408972074;-1451.5196678477776;9.446796639167587e-06;0.0023572267195959284;0.0;0.0023572267195959284
0.46400000000000036;-10480382498.0;-10474576416.0;-4.0;-1451.5193995616332;-1451.519658400981;9.428906878383714e-06;0.002352610181333148;0.0;0.002352610181333148
0.46800000000000036;-10486188575.0;-10480382494.0;-4.0;-1451.5193901685052;-1451.519648972074;9.410440725332592e-06;0.0023482820097342483;0.0;0.0023482820097342483
0.47200000000000036;-10491994653.0;-10486188572.0;-3.0;-1451.5193807944208;-1451.5196395616333;6.939312811482523e-05;0.0023435210891875613;0.0;0.0023435210891875613
0.47600000000000037;-10497800731.0;-10491994650.0;-3.0;-1451.5193714399568;-1451.5195701685052;9.374084356750245e-06;0.0023386160137306433;0.0;0.0023386160137306433
0.48000000000000037;-10503606809.0;-10497800728.0;-3.0;-1451.5193621010744;-1451.5195607944208;9.354464054922573e-06;0.002334720591079531;0.0;0.002334720591079531
0.4840000000000004;-10509412886.0;-10503606806.0;-3.0;-1451.5193527858519;-1451.5195514399568;9.338882364318124e-06;0.002328805635443132;0.0;0.002328805635443132
0.4880000000000004;-10515218964.0;-10509412884.0;-2.0;-1451.519343487942;-1451.5195421010744;6.931522261766077e-05;0.0023244774638442323;0.0;0.0023244774638442323
0.4920000000000004;-10521025042.0;-10515218961.0;-3.0;-1451.5193342102298;-1451.5194727858518;-5.070209022051131e-05;0.0023194280629468267;0.0;0.0023194280629468267
