Zeit[sec];Sollposition[°];Istposition[°];Positionsschleppfehler[°];Sollgeschwindigkeit[°/s];Istgeschwindigkeit[°/s];Geschwindigkeitsdifferenz[°/s];Sollbeschleunigung[°/s*s];Istbeschleunigung[°/s*s];Beschleunigungsdifferenz[°/s*s]
0.0;0.0;5.0;-5.0;-0.0;-0.00021499999999999997;0.0;0.0;0.0;0.0
0.004;0.0;5.0;-5.0;-0.0;-0.00021499999999999997;0.0;0.0;0.0;0.0
0.008;0.0;5.0;-5.0;-0.0;-0.00021499999999999997;0.0;0.0;0.0;0.0
0.012;0.0;5.0;-5.0;-0.0;-0.00021499999999999997;0.0;0.0;0.0;0.0
0.016;0.0;5.0;-5.0;-0.0;-0.00021499999999999997;0.0;0.0;0.0;0.0
0.02;0.0;5.0;-5.0;-0.0;-0.00021499999999999997;0.0;0.0;0.0;0.0
0.024;0.0;5.0;-5.0;-0.0;-0.00021499999999999997;0.0;0.0;0.0;0.0
0.028;0.0;5.0;-5.0;-0.0;-0.00021499999999999997;0.0;0.0;0.0;0.0
0.032;0.0;5.0;-5.0;-0.0;-0.00021499999999999997;0.0;0.0;0.0;0.0
0.036000000000000004;0.0;5.0;-5.0;-0.0;-0.00021499999999999997;0.0;0.0;0.0;0.0
0.04000000000000001;0.0;5.0;-5.0;-0.0;-0.00021499999999999997;0.0;0.0;0.0;0.0
0.04400000000000001;0.0;5.0;-5.0;-0.0;-0.00021499999999999997;0.0;0.0;0.0;0.0
0.048000000000000015;0.0;5.0;-5.0;-0.0;-0.00021499999999999997;0.0;0.0;0.0;0.0
0.05200000000000002;0.0;5.0;-5.0;-0.0;-0.00021499999999999997;0.0;0.0;0.0;0.0
0.05600000000000002;-156.0;5.0;-5.0;-0.03924685602467538;-0.00021499999999999997;0.0;-9.811714006168845;0.0;-9.811714006168845
0.060000000000000026;-1721.0;5.0;-161.0;-0.39112132854120873;-0.00021499999999999997;-0.04595485602467538;-87.96861812913333;0.0;-87.96861812913333
0.06400000000000003;-9411.0;-179.0;-1542.0;-1.9224406408299446;-0.04616985602467538;-0.41125747251653333;-382.82982807218394;0.0;-382.82982807218394
0.06800000000000003;-34828.0;-2008.0;-7403.0;-6.3543218182652845;-0.4574273285412087;-1.7833423122887357;-1107.970294358835;0.0;-1107.970294358835
0.07200000000000004;-99307.0;-10971.0;-23857.0;-16.119858123369184;-2.2407696408299445;-5.139403177435341;-2441.384076275975;0.0;-2441.384076275975
0.07600000000000004;-234165.0;-40491.0;-58816.0;-33.71445708369469;-7.380172818265285;-11.2687733051039;-4398.649740081377;0.0;-4398.649740081377
0.08000000000000004;-477740.0;-115086.0;-119079.0;-60.89367751815077;-18.648946123369186;-20.1859079603255;-6794.805108614019;0.0;-6794.805108614019
0.08400000000000005;-871569.0;-270425.0;-207315.0;-98.4572452303152;-38.83485408369469;-30.973368434456084;-9390.891928041106;-166.66666666666666;-9224.22526137444
0.08800000000000005;-1458449.0;-549657.0;-321912.0;-146.7199492041899;-69.80822251815077;-42.49123871216442;-12065.675993468676;-333.3333333333333;-11732.342660135344
0.09200000000000005;-2281945.0;-998854.0;-459595.0;-205.87392351254218;-112.29946123031519;-54.183072973874715;-14788.49357708807;-583.3333333333334;-14205.160243754735
0.09600000000000006;-3385021.0;-1664784.0;-617161.0;-275.7690685099197;-166.4825342041899;-65.92931230835228;-17473.78624934438;-916.6666666666666;-16557.11958267771
0.10000000000000006;-4807294.0;-2594431.0;-790590.0;-355.5683494694213;-232.41184651254218;-77.35259199737749;-19949.820239875407;-1333.3333333333333;-18616.486906542075
0.10400000000000006;-6582496.0;-3833488.0;-973806.0;-443.8003394435595;-309.76443850991967;-87.67756895950163;-22057.99749353454;-1833.3333333333333;-20224.66416020121
0.10800000000000007;-8736929.0;-5423256.0;-1159240.0;-538.6082291409916;-397.4420074694213;-96.20565197413822;-23701.97242435803;-2416.6666666666665;-21285.305757691367
0.11200000000000007;-11288614.0;-7397846.0;-1339083.0;-637.9211699961555;-493.6476594435595;-102.54113869743207;-24828.235213790977;-3083.3333333333335;-21744.90188045764
0.11600000000000008;-14247542.0;-9782601.0;-1506013.0;-739.7320556777529;-596.1887981409916;-106.49093085516392;-25452.721420399343;-3916.6666666666665;-21536.054753732675
0.12000000000000008;-17617462.0;-12593319.0;-1654223.0;-842.47987857837;-702.6797289961555;-108.18391568159734;-25686.955725154265;-4666.666666666667;-21020.289058487597
0.12400000000000008;-21398430.0;-15836773.0;-1780689.0;-945.242163401894;-810.8636446777529;-108.18586090061706;-25690.571205881013;-5500.0;-20190.571205881013
0.12800000000000009;-25589057.0;-19512971.0;-1885459.0;-1047.6564651582833;-919.0495055783699;-107.267394823524;-25603.575439097312;-6333.333333333333;-19270.24210576398
0.1320000000000001;-30187892.0;-23618238.0;-1970819.0;-1149.7087138436455;-1026.316900401894;-106.08478175638925;-25513.06217134055;-7166.666666666667;-18346.395504673885
0.1360000000000001;-35193999.0;-28147844.0;-2040048.0;-1251.526750275381;-1132.4016821582832;-105.02909568536234;-25454.50910793386;-8000.0;-17454.50910793386
0.1400000000000001;-40606986.0;-33097567.0;-2096432.0;-1353.2466986899626;-1237.4307778436455;-104.24254843173549;-25429.98710364543;-8833.333333333334;-16596.653770312096
0.1440000000000001;-46426814.0;-38464260.0;-2142726.0;-1454.9570055500212;-1341.673326275381;-103.7105904145817;-25427.576715014653;-9666.666666666666;-15760.910048347985
0.1480000000000001;-52653592.0;-44245795.0;-2181019.0;-1556.6942719276951;-1445.3839166899627;-103.35690586005853;-25434.316594418477;-10500.0;-14934.316594418477
0.1520000000000001;-59287437.0;-50440758.0;-2212834.0;-1658.4612428796797;-1548.7408225500212;-103.10531137767384;-25441.742737996152;-11333.333333333334;-14108.409404662816
0.1560000000000001;-66328424.0;-57048142.0;-2239295.0;-1760.2467413945333;-1651.846133927695;-102.90479395198463;-25446.374628713387;-12083.333333333334;-13363.041295380051
0.16000000000000011;-73776580.0;-64067145.0;-2261279.0;-1862.0387551478034;-1754.7509278796797;-102.7308105148536;-25448.00343831753;-12916.666666666666;-12531.336771650862
0.16400000000000012;-81631899.0;-71497071.0;-2279509.0;-1963.829806750777;-1857.4817383945333;-102.57590375327004;-25447.762900743386;-13666.666666666666;-11781.096234076718
0.16800000000000012;-89894368.0;-79337301.0;-2294598.0;-2065.6172304645015;-1960.0576421478033;-102.43987860297352;-25446.85592843115;-14500.0;-10946.855928431149
0.17200000000000013;-98563974.0;-87587291.0;-2307077.0;-2167.401356779933;-2062.497520750777;-102.32402071372462;-25446.031578857855;-15333.333333333334;-10112.698245524522
0.17600000000000013;-107640709.0;-96246577.0;-2317397.0;-2269.1835968334262;-2164.8215414645015;-102.22788631543153;-25445.560013373324;-16083.333333333334;-9362.22668003999
0.18000000000000013;-117124571.0;-105314774.0;-2325935.0;-2370.9652473172846;-2267.049427779933;-102.14937405349337;-25445.41262096459;-16916.666666666668;-8528.745954297921
0.18400000000000014;-127015559.0;-114791569.0;-2333002.0;-2472.7470549711;-2369.1988018334264;-102.08553148385818;-25445.451913453893;-17666.666666666668;-7778.785246787226
0.18800000000000014;-137313677.0;-124676706.0;-2338853.0;-2574.5292563243656;-2471.2843333172846;-102.03340065381553;-25445.550338316367;-18583.333333333332;-6862.217004983034
0.19200000000000014;-148018924.0;-134969976.0;-2343701.0;-2676.3117922878305;-2573.3177339711;-101.99066535326574;-25445.633990866212;-19333.333333333332;-6112.300657532881
0.19600000000000015;-159131303.0;-145671209.0;-2347715.0;-2778.094508972709;-2675.308399324366;-101.9551379634645;-25445.67917121958;-20166.666666666668;-5279.012504552913
0.20000000000000015;-170650656.0;-156780263.0;-2351040.0;-2879.8381444243546;-2777.2635372878303;-101.92569168487853;-25435.90886291145;-20833.333333333332;-4602.575529578115
0.20400000000000015;-182575972.0;-168297019.0;-2353637.0;-2981.328753805667;-2879.189228972709;-101.8553064516459;-25372.652345328104;-21666.666666666668;-3705.985678661438
0.20800000000000016;-194904181.0;-180221197.0;-2354775.0;-3082.0522325346265;-2981.0445354243548;-101.53954338131234;-25180.86968223986;-22416.666666666668;-2764.203015573191
0.21200000000000016;-207628849.0;-192551533.0;-2352648.0;-3181.1668456443685;-3082.584078805667;-100.63201772895945;-24778.653277435522;-23166.666666666668;-1611.9866107688558
0.21600000000000016;-220738306.0;-205284397.0;-2344452.0;-3277.3639270303306;-3183.2160965346266;-98.76218510974195;-24049.270346490517;-23750.0;-299.2703464905162
0.22000000000000017;-234213094.0;-218412310.0;-2325996.0;-3368.6970695603804;-3281.9782816443685;-95.40347338596212;-22833.285632512456;-24250.0;1416.7143674875433
0.22400000000000017;-248024483.0;-231921837.0;-2291257.0;-3452.8469799991667;-3377.3817550303306;-89.83936553004969;-21037.477609696565;-24666.666666666668;3629.189056970102
0.22800000000000017;-262135405.0;-245790721.0;-2233762.0;-3527.7302115705993;-3467.2211205603803;-81.67762543878644;-18720.807892858145;-25000.0;6279.192107141853
0.23200000000000018;-276503057.0;-259986315.0;-2149090.0;-3591.9128279003003;-3548.8987459991667;-71.2423355714327;-16045.654082425244;-25250.0;9204.345917574756
0.23600000000000018;-291081821.0;-274466879.0;-2036178.0;-3644.691020257683;-3620.1410815705995;-59.327400329700595;-13194.54808934563;-25250.0;12055.45191065437
0.24000000000000019;-305826014.0;-289184752.0;-1897069.0;-3686.0480477344404;-3679.4684819003;-46.79650535738256;-10339.256869189398;-25166.666666666668;14827.40979747727
0.2440000000000002;-320692195.0;-304089811.0;-1736203.0;-3716.5450074698238;-3726.2649872576826;-34.439789476757596;-7624.239933845843;-24833.333333333332;17209.09339948749
0.2480000000000002;-335640835.0;-319132630.0;-1559565.0;-3737.1599167892073;-3760.70477673444;-22.90152573538353;-5153.727329845879;-24416.666666666668;19262.93933682079
0.25200000000000017;-350638121.0;-334267055.0;-1373780.0;-3749.3212278875303;-3783.6063024698237;-12.626154319383659;-3040.32777458076;-23833.333333333332;20793.00555875257
0.25600000000000017;-365658296.0;-349451984.0;-1186137.0;-3755.0436149082357;-3796.2324567892074;-4.092662098322762;-1430.5967551763388;-23166.666666666668;21736.06991149033
0.2600000000000002;-380684973.0;-364653284.0;-1005012.0;-3756.6689330433574;-3800.32511888753;2.0659879792942775;-406.329533780422;-22500.0;22093.670466219577
0.2640000000000002;-395710082.0;-379846320.0;-838653.0;-3756.277146862873;-3798.259130908236;5.5281188648787065;97.94654512108991;-21666.666666666668;21764.613211787757
0.2680000000000002;-410731244.0;-395017244.0;-692838.0;-3755.2902708610754;-3792.731012043357;6.661831180484114;246.71900044938866;-20833.333333333332;21080.05233378272
0.2720000000000002;-425749008.0;-410161520.0;-569724.0;-3754.440931002436;-3786.069180862873;6.280778001797444;212.33496465981716;-19916.666666666668;20129.001631326486
0.2760000000000002;-440764826.0;-425280673.0;-468335.0;-3753.95425891757;-3779.7884028610756;5.209066858639289;121.66802121657838;-19083.333333333332;19205.00135454991
0.2800000000000002;-455779954.0;-440378990.0;-385836.0;-3753.78190367574;-3774.5793360024363;4.034129084866436;43.088810457447835;-18250.0;18293.088810457448
0.2840000000000002;-470795109.0;-455461170.0;-318784.0;-3753.78846223274;-3770.54520691757;3.055591241829916;-1.6396392500155343;-17416.666666666668;17415.027027416654
0.2880000000000002;-485810532.0;-470531128.0;-263981.0;-3753.8555910528758;-3767.48961567574;2.34997044299962;-16.782205033905484;-16583.333333333332;16566.551128299427
0.2920000000000002;-500826197.0;-485591686.0;-218846.0;-3753.916132638878;-3765.1396452327403;1.8736761798645603;-15.135396500568277;-15750.0;15734.86460349943
0.2960000000000002;-515841990.0;-500644749.0;-181448.0;-3753.948070629422;-3763.265969052876;1.547572413997841;-7.9844976360163855;-14916.666666666666;14908.68216903065
0.3000000000000002;-530857811.0;-515691622.0;-150368.0;-3753.954995665124;-3761.718396638878;1.3045020094559732;-1.7312589254743216;-14083.333333333334;14081.60207440786
0.3040000000000002;-545873606.0;-530733277.0;-124534.0;-3753.948721614722;-3760.413894629422;1.1039369642981;1.568512600442773;-13250.0;13251.568512600443
0.3080000000000002;-560889365.0;-545770516.0;-103090.0;-3753.939409395853;-3759.309957665124;0.9283660504015643;2.3280547172817023;-12500.0;12502.328054717282
0.3120000000000002;-575905095.0;-560804042.0;-85323.0;-3753.932431248677;-3758.3815916147223;0.7732932188691848;1.7445367940354117;-11666.666666666666;11668.411203460702
0.3160000000000002;-590920812.0;-575834475.0;-70620.0;-3753.9290751719927;-3757.608298395853;0.6392071471759664;0.8390191710532235;-10833.333333333334;10834.172352504387
0.32000000000000023;-605936527.0;-590862351.0;-58461.0;-3753.928463287674;-3756.969091248677;0.526193076684649;0.15297107972855883;-10000.0;10000.15297107973
0.32400000000000023;-620952244.0;-605888122.0;-48405.0;-3753.9291824686047;-3756.4428981719925;0.4330198843185826;-0.17979523272515507;-9250.0;9249.820204767275
0.32800000000000024;-635967966.0;-620912161.0;-40083.0;-3753.9301522554915;-3756.009878287674;0.3571268190689807;-0.24244672169970727;-8500.0;8499.757553278301
0.33200000000000024;-650983690.0;-635934772.0;-33194.0;-3753.9308445973907;-3755.652751468605;0.29525721311347297;-0.1730854747847843;-7666.666666666667;7666.493581191882
0.33600000000000024;-665999415.0;-650956201.0;-27489.0;-3753.931157160701;-3755.3574942554915;0.2446226581009796;-0.07814082755430718;-6833.333333333333;6833.255192505779
0.34000000000000025;-681015140.0;-665976652.0;-22763.0;-3753.931197114834;-3755.1128715973905;0.20290543668943428;-0.00998853329292615;-6000.0;5999.990011466707
0.34400000000000025;-696030866.0;-680996291.0;-18849.0;-3753.931113318274;-3754.909966160701;0.168262045866868;0.020949139980075415;-5250.0;5250.02094913998
0.34800000000000025;-711046590.0;-696015257.0;-15609.0;-3753.9310132001197;-3754.741704114834;0.13940379656014557;0.025029538619492087;-4500.0;4500.0250295386195
0.35200000000000026;-726062315.0;-711033666.0;-12924.0;-3753.930945808018;-3754.602300318274;0.11555511815458885;0.01684802543877595;-3750.0;3750.016848025439
0.35600000000000026;-741078039.0;-726051612.0;-10703.0;-3753.9309178309954;-3754.4867452001195;0.09557039210176299;0.006994255613790301;-3000.0;3000.006994255614
0.36000000000000026;-756093764.0;-741069176.0;-8863.0;-3753.9309165052355;-3754.3911748080177;0.07914797702233045;0.0003314399918963318;-2250.0;2250.000331439992
0.36400000000000027;-771109488.0;-756086424.0;-7340.0;-3753.930926321904;-3754.3120268309954;0.0654903257600381;-0.0024541670882172184;-1583.3333333333333;1583.330879166245
0.36800000000000027;-786125213.0;-771103410.0;-6078.0;-3753.93093674519;-3754.2465365052353;0.05425618333129023;-0.0026058215780722094;-1000.0;999.9973941784219
0.3720000000000003;-801140937.0;-786120179.0;-5034.0;-3753.9309433394783;-3754.192280321904;0.044881576714033145;-0.00164857203799329;-583.3333333333334;583.3316847612954
0.3760000000000003;-816156661.0;-801136768.0;-4169.0;-3753.9309458332023;-3754.14739874519;0.03718840571173132;-0.000623430992163776;-250.0;249.99937656900784
0.3800000000000003;-831172386.0;-816153208.0;-3453.0;-3753.9309457194963;-3754.1102103394783;0.030785506276060914;2.8426484277588315e-05;0.0;2.8426484277588315e-05
0.3840000000000003;-846188110.0;-831169525.0;-2861.0;-3753.930944611696;-3754.079424833202;0.025456113705786265;0.00027695011795003666;166.66666666666666;-166.6663897165487
0.3880000000000003;-861203835.0;-846185740.0;-2370.0;-3753.9309435408027;-3754.0539687194964;0.0211141078007131;0.0002677232942005503;333.3333333333333;-333.3330656100391
0.3920000000000003;-876219559.0;-861201871.0;-1964.0;-3753.930942902688;-3754.0328546116957;0.01745907089298271;0.00015952866760926554;333.3333333333333;-333.3331738046657
0.3960000000000003;-891235284.0;-876217932.0;-1627.0;-3753.930942686314;-3754.0153955408027;0.014491638114577654;5.4093447943159845e-05;333.3333333333333;-333.33327923988537
0.4000000000000003;-906251008.0;-891233935.0;-1349.0;-3753.9309427223193;-3754.000903902688;0.011954216373851523;-9.00126906344667e-06;250.0;-250.00000900126906
0.4040000000000003;-921266733.0;-906249890.0;-1118.0;-3753.930942844732;-3753.9889496863143;0.009932963995197497;-3.0603132472606376e-05;250.0;-250.00003060313247
0.4080000000000003;-936282457.0;-921265806.0;-927.0;-3753.930942953835;-3753.979016722319;0.008212877587084222;-2.7275746106170118e-05;250.0;-250.0000272757461
0.4120000000000003;-951298182.0;-936281689.0;-768.0;-3753.9309430149324;-3753.970803844732;0.0068368908973752696;-1.527439508208772e-05;166.66666666666666;-166.66668194106174
0.4160000000000003;-966313906.0;-951297544.0;-638.0;-3753.9309430331214;-3753.9639669538346;0.005589938902176073;-4.547246135189198e-06;166.66666666666666;-166.6666712139128
0.4200000000000003;-981329631.0;-966313377.0;-529.0;-3753.9309430270896;-3753.9583770149325;0.00468698181111904;1.507942215539515e-06;83.33333333333333;-83.33333182539111
0.4240000000000003;-996345355.0;-981329191.0;-440.0;-3753.9309430135954;-3753.9536900331213;0.003827006031769997;3.373543222551234e-06;83.33333333333333;-83.3333299597901
0.4280000000000003;-1011361080.0;-996344990.0;-365.0;-3753.9309430027442;-3753.9498630270896;0.0032250134941023134;2.7127953217132017e-06;0.0;2.7127953217132017e-06
0.43200000000000033;-1026376804.0;-1011360776.0;-304.0;-3753.9309429968366;-3753.9466380135955;0.0026230108510389982;1.4769057088415138e-06;83.33333333333333;-83.33333185642762
0.43600000000000033;-1041392529.0;-1026376552.0;-252.0;-3753.9309429954687;-3753.9440150027444;0.0022360059078891936;3.41970007866621e-07;83.33333333333333;-83.33333299136332
0.44000000000000034;-1056408253.0;-1041392319.0;-210.0;-3753.9309429962773;-3753.9417789968365;0.0018060013676404196;-2.021351974690333e-07;83.33333333333333;-83.33333353546853
0.44400000000000034;-1071423978.0;-1056408078.0;-175.0;-3753.930942997738;-3753.939972995469;0.0015049991916384897;-3.651621227618307e-07;0.0;-3.651621227618307e-07
0.44800000000000034;-1086439702.0;-1071423831.0;-147.0;-3753.9309429988266;-3753.9384679962773;0.0012039985394949326;-2.721662895055488e-07;0.0;-2.721662895055488e-07
0.45200000000000035;-1101455427.0;-1086439580.0;-122.0;-3753.9309429993864;-3753.937263997738;0.0010749989110081515;-1.3994849723530933e-07;0.0;-1.3994849723530933e-07
0.45600000000000035;-1116471151.0;-1101455324.0;-103.0;-3753.9309429994487;-3753.9361889988268;0.0008169994403033343;-1.5575096767861396e-08;0.0;-1.5575096767861396e-08
0.46000000000000035;-1131486876.0;-1116471065.0;-86.0;-3753.930942999355;-3753.9353719993865;0.0007309999377866916;2.3419488570652902e-08;0.0;2.3419488570652902e-08
0.46400000000000036;-1146502600.0;-1131486803.0;-73.0;-3753.9309429990753;-3753.9346409994487;0.0005590000937445438;6.991740519879386e-08;0.0;6.991740519879386e-08
0.46800000000000036;-1161518325.0;-1146502539.0;-61.0;-3753.9309429991376;-3753.934081999355;0.0005160002797310881;-1.5575096767861396e-08;0.0;-1.5575096767861396e-08
0.47200000000000036;-1176534049.0;-1161518273.0;-52.0;-3753.9309429990753;-3753.933565999075;0.0003869999377457134;1.5575096767861396e-08;0.0;1.5575096767861396e-08
0.47600000000000037;-1191549774.0;-1176534005.0;-44.0;-3753.930942999013;-3753.9331789991375;0.0003440000618866179;1.5575096767861396e-08;0.0;1.5575096767861396e-08
0.48000000000000037;-1206565498.0;-1191549736.0;-38.0;-3753.9309429991376;-3753.9328349990756;0.0002580000623311207;-3.115019353572279e-08;0.0;-3.115019353572279e-08
0.4840000000000004;-1221581223.0;-1206565466.0;-32.0;-3753.9309429990753;-3753.9325769990132;0.0002579998754299595;1.5575096767861396e-08;0.0;1.5575096767861396e-08
0.4880000000000004;-1236596947.0;-1221581195.0;-28.0;-3753.9309429990753;-3753.932318999138;0.00017200006232087617;0.0;0.0;0.0
0.4920000000000004;-1251612672.0;-1236596923.0;-24.0;-3753.930942999013;-3753.9321469990755;0.0001720000000204891;1.5575096767861396e-08;83.33333333333333;-83.33333331775823
0.4960000000000004;-1266628396.0;-1251612650.0;-22.0;-3753.9309429992622;-3753.9319749990755;8.600006231063162e-05;-6.230038707144558e-08;83.33333333333333;-83.33333339563372
0.5000000000000003;-1281644121.0;-1266628377.0;-19.0;-3753.930942999013;-3753.931888999013;0.00012899975081381854;6.230038707144558e-08;83.33333333333333;-83.33333327103294
0.5040000000000003;-1296659845.0;-1281644104.0;-17.0;-3753.9309429990753;-3753.9317599992623;8.600024921179283e-05;-1.5575096767861396e-08;0.0;-1.5575096767861396e-08
