Zeit[sec];Sollposition[°];Istposition[°];Positionsschleppfehler[°];Sollgeschwindigkeit[°/s];Istgeschwindigkeit[°/s];Geschwindigkeitsdifferenz[°/s];Sollbeschleunigung[°/s*s];Istbeschleunigung[°/s*s];Beschleunigungsdifferenz[°/s*s]
0.0;-9979199999.0;-9979200439.0;440.0;0.0;0.12487661696225405;-0.09847661693749928;0.0;0.0;0.0
0.004;-9979199999.0;-9979194946.0;-5053.0;0.0;0.7815126734301449;-1.0846926734827598;0.0;83.33333333333333;-83.33333333333333
0.008;-9979199999.0;-9979200439.0;440.0;0.0;0.47383346735686066;-0.44743346733210587;0.0;-166.66666666666666;166.66666666666666
0.012;-9979199999.0;-9979205933.0;5934.0;0.0;-3.0382609129548075;3.3943009129713704;0.0;0.0;0.0
0.016;-9979199999.0;-9979194946.0;-5053.0;0.0;1.1245754167512059;-1.4277554168038207;0.0;-83.33333333333333;83.33333333333333
0.02;-9979199999.0;-9979200439.0;440.0;0.0;-0.4585551460906863;0.4849551461154411;0.0;83.33333333333333;-83.33333333333333
0.024;-9979199999.0;-9979194946.0;-5053.0;0.0;1.0735507031530143;-1.376730703205629;0.0;0.0;0.0
0.028;-9979199999.0;-9979205933.0;5934.0;0.0;-1.977671196781099;2.333711196797662;0.0;0.0;0.0
0.032;-9979199999.0;-9979194946.0;-5053.0;0.0;3.4183681240305304;-3.721548124083145;0.0;0.0;0.0
0.036000000000000004;-9979200051.0;-9979194946.0;-5053.0;-0.012908048278841903;1.2899584310501815;-1.5931384311027963;-3.227012069710476;83.33333333333333;-86.5603454030438
0.04000000000000001;-9979200566.0;-9979205933.0;5913.0;-0.12863738157505997;-2.1860225423276427;2.5356847028861997;-28.932333324054515;-83.33333333333333;54.40100000927881
0.04400000000000001;-9979203095.0;-9979194946.0;-5309.0;-0.6322788125028106;1.5879781368300319;-1.965235424426371;-125.91035773193765;0.0;-125.91035773193765
0.048000000000000015;-9979211454.0;-9979194946.0;-6620.0;-2.089897066490151;1.920195537276566;-2.6450407752306737;-364.40456349683507;-83.33333333333333;-281.07123016350175
0.05200000000000002;-9979301276.0;-9979194946.0;-11448.0;-22.455468484762626;3.466931362606585;-5.361062013618447;-5091.392854568119;83.33333333333333;-5174.726187901452
0.05600000000000002;-9979393618.0;-9979205933.0;-41085.0;-23.085439173062433;-0.879239910915494;-11.741847278935568;-157.49267207495166;0.0;-157.49267207495166
0.060000000000000026;-9979531875.0;-9979222412.0;-114950.0;-34.564353193894;-3.6312645341381433;-25.851647965241384;-2869.728505207892;-250.0;-2619.728505207892
0.06400000000000003;-9979727131.0;-9979288330.0;-159564.0;-48.81391830448164;-16.06865563041717;-21.138142359406842;-3562.3912776469097;-750.0;-2812.3912776469097
0.06800000000000003;-9979991062.0;-9979392700.0;-215781.0;-65.98274466896872;-27.5646687566787;-25.529015092373328;-4292.2065911217705;-1666.6666666666667;-2625.5399244551036
0.07200000000000004;-9980333342.0;-9979628906.0;-201725.0;-85.56987314735173;-56.9142372982204;-10.726858851259394;-4896.782119595752;-3333.3333333333335;-1563.4487862624185
0.07600000000000004;-9980761173.0;-9979996948.0;-128276.0;-106.95793611610198;-91.18157481816411;9.836878348348336;-5347.015742187562;-5583.333333333333;236.3175911457711
0.08000000000000004;-9981282215.0;-9980397949.0;-103016.0;-130.26046766314408;-99.91985467913747;-0.1962429158049872;-5825.632886760527;-6416.666666666667;591.03377990614
0.08400000000000005;-9981905784.0;-9980892334.0;-72917.0;-155.89210564194568;-125.50932055241614;5.062595461403248;-6407.909494700398;-5583.333333333333;-824.576161367065
0.08800000000000005;-9982640842.0;-9981518555.0;-7842.0;-183.7645377811735;-155.194312429823;14.437319073293537;-6968.108034806953;-5416.666666666667;-1551.441368140286
0.09200000000000005;-9983495199.0;-9982205200.0;11631.0;-213.58917634343527;-173.81882100056112;7.7237769008976045;-7456.159640565445;-5500.0;-1956.1596405654454
0.09600000000000006;-9984475388.0;-9983007202.0;31928.0;-245.04729427769428;-200.1582719283998;6.647725999424324;-7864.529483564752;-6333.333333333333;-1531.1961502314189
0.10000000000000006;-9985586062.0;-9983952026.0;73203.0;-277.6685160750006;-229.78259659978002;8.28770177000655;-8155.305449326576;-6750.0;-1405.3054493265763
0.10400000000000006;-9986829886.0;-9984951782.0;41772.0;-310.95601460598596;-253.88351888838412;-1.4069352155420347;-8321.874632746343;-6250.0;-2071.8746327463437
0.10800000000000007;-9988207979.0;-9986088867.0;16156.0;-344.5231213710732;-284.41670415798575;-5.2892849958179795;-8391.776691271814;-6916.666666666667;-1475.110024605148
0.11200000000000007;-9989720541.0;-9987308350.0;-60640.0;-378.14053428844505;-305.6875881166533;-22.0206158988845;-8404.35322934296;-6000.0;-2404.3532293429594
0.11600000000000008;-9991367390.0;-9988670654.0;-128957.0;-411.712376296373;-347.2600986954868;-18.13253935904737;-8392.960501981988;-6750.0;-1642.9605019819887
0.12000000000000008;-9993148289.0;-9990159302.0;-205326.0;-445.2245500774144;-380.0159769233167;-23.55785113237323;-8378.043445260346;-7250.0;-1128.0434452603458
0.12400000000000008;-9995063078.0;-9991790771.0;-273068.0;-478.69722391290895;-409.2242059671506;-31.96259359389046;-8368.16845887364;-8333.333333333334;-34.83512554030631
0.12800000000000009;-9997111697.0;-9993521118.0;-375920.0;-512.1548038513437;-435.7736290724725;-45.08115277684112;-8364.39498460868;-8333.333333333334;-31.061651275345866
0.1320000000000001;-9999294150.0;-9995399780.0;-464324.0;-545.6132726219578;-473.47282051099836;-46.15312212455325;-8364.617192653526;-7916.666666666667;-447.950525986859
0.1360000000000001;-10001610466.0;-9997437744.0;-527258.0;-579.0788056092207;-508.61994830336425;-48.240055119414706;-8366.383246815729;-8083.333333333333;-283.0499134823965
0.1400000000000001;-10004060670.0;-9999585571.0;-614174.0;-612.5511829598619;-533.2448714408874;-62.29135639608501;-8368.094337660295;-8916.666666666666;548.5723290063706
0.1440000000000001;-10006644781.0;-10001870728.0;-697633.0;-646.0276917201097;-580.8339369937629;-53.178036121654145;-8369.12719006196;-8000.0;-369.1271900619597
0.1480000000000001;-10009362804.0;-10004326172.0;-744701.0;-679.5056692535123;-616.1876918017641;-54.122336600171366;-8369.494383350655;-8750.0;380.50561664934435
0.1520000000000001;-10012214738.0;-10006913452.0;-793841.0;-712.9835026222788;-648.9815835326762;-57.75391176756693;-8369.458342191621;-8750.0;380.54165780837934
0.1560000000000001;-10015200581.0;-10009643555.0;-834070.0;-746.4606198347076;-688.583006533064;-54.044140535325596;-8369.279303107192;-9666.666666666666;1297.3873635594746
0.16000000000000011;-10018320329.0;-10012510986.0;-870882.0;-779.937081927665;-717.9446883973255;-60.36872893994746;-8369.115523239345;-8750.0;380.88447676065584
0.16400000000000012;-10021573982.0;-10015565186.0;-854831.0;-813.4131748560288;-762.0148426605911;-48.81237634048557;-8369.023232090967;-9250.0;880.9767679090328
0.16800000000000012;-10024961539.0;-10018751221.0;-840851.0;-846.8891602637474;-793.5590048983768;-49.905733666393644;-8368.996351929638;-9916.666666666666;1547.6703147370276
0.17200000000000013;-10028483000.0;-10022030640.0;-867391.0;-880.3651865350647;-820.9172901511639;-57.61590087482102;-8369.00656782933;-8750.0;380.99343217066917
0.17600000000000013;-10032138365.0;-10025452881.0;-885013.0;-913.8412981322491;-858.7456616932825;-54.32085157214203;-8369.0278992961;-7833.333333333333;-535.6945659627668
0.18000000000000013;-10035927635.0;-10029001465.0;-910197.0;-947.317480260417;-883.2024444409609;-64.8511686867106;-8369.04553204198;-7750.0;-619.0455320419801
0.18400000000000014;-10039850810.0;-10032742310.0;-877023.0;-980.7936999896627;-936.8774841625989;-42.66182802674564;-8369.054932311428;-8500.0;130.94506768857173
0.18800000000000014;-10043907890.0;-10036675415.0;-785495.0;-1014.2699298527186;-982.9531932397708;-24.570635572681567;-8369.057465763974;-10416.666666666666;2047.6092009026931
0.19200000000000014;-10048098875.0;-10040619507.0;-816884.0;-1047.7461551652116;-985.7541400068328;-57.12925233239389;-8369.056328123235;-9333.333333333334;964.2770052100982
0.19600000000000015;-10052423765.0;-10044739380.0;-806398.0;-1081.2223719894375;-1038.0688500587792;-37.661610279967135;-8369.05420605649;-7833.333333333333;-535.7208727231564
0.20000000000000015;-10056882559.0;-10049122925.0;-666145.0;-1114.6985821472376;-1092.731937032886;-8.059565279535036;-8369.052539450024;-8916.666666666666;547.6141272166419
0.20400000000000015;-10061474968.0;-10053517456.0;-648810.0;-1148.102177834402;-1095.0996402585954;-38.127976284742545;-8350.8989217911;-9500.0;1149.1010782089006
0.20800000000000016;-10066200119.0;-10057994385.0;-682867.0;-1181.287550657176;-1123.4336782129408;-45.28477802417183;-8296.343205693518;-8416.666666666666;120.32346097314849
0.21200000000000016;-10071056871.0;-10062702026.0;-619482.0;-1214.1879877428203;-1172.0663814916313;-26.166473952158867;-8225.109271411042;-7000.0;-1225.1092714110428
0.21600000000000016;-10076042636.0;-10067514038.0;-584021.0;-1246.4411186135005;-1205.5974149852545;-23.581459363038675;-8063.282717670063;-7166.666666666667;-896.616051003396
0.22000000000000017;-10081151748.0;-10072419434.0;-585757.0;-1277.278122808887;-1227.3750451315195;-34.55344904782328;-7709.251048846625;-9416.666666666666;1707.4156178200415
0.22400000000000017;-10086376890.0;-10077418213.0;-620892.0;-1306.2853942471875;-1251.863920709312;-43.86812505078342;-7251.817859575112;-7166.666666666667;-85.15119290844541
0.22800000000000017;-10091710242.0;-10082642212.0;-551287.0;-1333.338000054716;-1308.1449360837266;-13.530651040351131;-6763.151451882151;-7416.666666666667;653.5152147845151
0.23200000000000018;-10097142564.0;-10087926636.0;-534229.0;-1358.0802941369298;-1314.1571985042915;-34.737906767580625;-6185.573520553418;-8750.0;2564.426479446581
0.23600000000000018;-10102662725.0;-10093211060.0;-621763.0;-1380.0401382319735;-1329.4856550551729;-50.809546642571604;-5489.961023760941;-6333.333333333333;843.3723095723922
0.24000000000000019;-10108258231.0;-10098792114.0;-507278.0;-1398.8765171826803;-1395.0784535686075;-2.0002812500590608;-4709.094737676707;-6833.333333333333;2124.2385956566254
0.2440000000000002;-10113915932.0;-10104378662.0;-470249.0;-1414.425071364312;-1391.4166825605482;-24.178054645415386;-3887.138545407936;-6833.333333333333;2946.194787925397
0.2480000000000002;-10119622194.0;-10109954224.0;-514411.0;-1426.5655244360883;-1398.9255704084858;-36.86999615312925;-3035.113267944041;-6333.333333333333;3298.220065389292
0.25200000000000017;-10125364515.0;-10115722046.0;-423179.0;-1435.5802777263993;-1442.57519443433;-1.9630120687509134;-2253.688322577773;-4916.666666666667;2662.978344088894
0.25600000000000017;-10131133425.0;-10121544800.0;-320699.0;-1442.2272307267056;-1437.2219827109352;-12.08855508202123;-1661.738250076553;-4916.666666666667;3254.928416590114
0.2600000000000002;-10136921182.0;-10127241211.0;-376940.0;-1446.9392862572706;-1425.6670161311254;-35.11225378107906;-1178.0138826412667;-3333.3333333333335;2155.3194506920668
0.2640000000000002;-10142720642.0;-10133168335.0;-226043.0;-1449.8650464334175;-1484.5600658334567;26.94094570503421;-731.4400440367308;-2666.6666666666665;1935.2266226299357
0.2680000000000002;-10148526150.0;-10139024048.0;-162617.0;-1451.376875781825;-1456.3330880922824;-1.4956266594790577;-377.9573371018614;-1666.6666666666667;1288.7093295648053
0.2720000000000002;-10154333969.0;-10144791870.0;-196584.0;-1451.9547328323051;-1446.1126589627415;-16.129701058912133;-144.46426262003342;-1333.3333333333333;1188.8690707132998
0.2760000000000002;-10160142025.0;-10150702515.0;-92328.0;-1452.013774660694;-1477.8469294408635;20.710120742556683;-14.760457097224844;-833.3333333333334;818.5728762361085
0.2800000000000002;-10165949476.0;-10156536255.0;-66487.0;-1451.8626295020747;-1450.381032665126;-5.582943448375772;37.78628965483222;500.0;-462.2137103451678
0.2840000000000002;-10171756221.0;-10162287598.0;-122959.0;-1451.6863524549433;-1446.0551756821349;-13.27586633651731;44.069261782851754;666.6666666666666;-622.5974048838149
0.2880000000000002;-10177562477.0;-10168258667.0;40935.0;-1451.563754809168;-1483.9007710711883;34.56324704778831;30.649411443846475;-1000.0;1030.6494114438465
0.2920000000000002;-10183368499.0;-10174048462.0;24175.0;-1451.505585033786;-1448.8626119349226;-1.3256653424130036;14.542443845471098;583.3333333333334;-568.7908894878623
0.2960000000000002;-10189174469.0;-10179898682.0;68229.0;-1451.492412168774;-1467.1727223828063;19.725052635133807;3.293216252984621;-916.6666666666666;919.9598829196512
0.3000000000000002;-10194980470.0;-10185798340.0;161884.0;-1451.5002346674328;-1474.8360604092256;33.04839737206544;-1.9556246646743602;-83.33333333333333;81.37770866865897
0.3040000000000002;-10200786519.0;-10191538696.0;96258.0;-1451.5121981462785;-1437.8712329125478;-7.848877939521344;-2.990869711425148;1166.6666666666667;-1169.657536378092
0.3080000000000002;-10206592602.0;-10197460327.0;211869.0;-1451.5205219036775;-1485.9130040341317;47.120211869150125;-2.0809393497529527;-166.66666666666666;164.5857273169137
0.3120000000000002;-10212398697.0;-10203343506.0;288986.0;-1451.5238357816238;-1466.380768193461;32.204499905941475;-0.8284694865778874;-1000.0;999.1715305134221
0.3160000000000002;-10218204792.0;-10209100342.0;239734.0;-1451.5237120141621;-1443.1207945547626;5.983047522300694;0.03094186541829913;333.3333333333333;-333.302391467915
0.32000000000000023;-10224010882.0;-10214934082.0;267379.0;-1451.5221994925862;-1462.7873944672422;27.306367174705883;0.37813039398315595;500.0;-499.62186960601684
0.32400000000000023;-10229816965.0;-10220718384.0;245588.0;-1451.5206942713583;-1434.3484738920854;-2.439359156143155;0.3763053069860689;1750.0;-1749.623694693014
0.32800000000000024;-10235623044.0;-10226442261.0;163378.0;-1451.5197661501425;-1438.311290763855;-3.407640794456711;0.23203030394824964;2000.0;-1999.7679696960518
0.33200000000000024;-10241429122.0;-10232325439.0;240474.0;-1451.5194234631253;-1463.443848272793;26.35195316727436;0.08567175427742768;-916.6666666666666;916.752338420944
0.33600000000000024;-10247235200.0;-10238076782.0;185739.0;-1451.5194433521808;-1437.2445121419057;-3.1307835764021092;-0.00497226386642069;750.0;-750.0049722638664
0.34000000000000025;-10253041279.0;-10243861084.0;163963.0;-1451.519596170129;-1441.6768764609321;-0.004776895871373199;-0.03820448705482704;-1166.6666666666667;1166.628462179612
0.34400000000000025;-10258847358.0;-10249694824.0;191624.0;-1451.5197386271864;-1454.1686294514388;14.146565625917901;-0.03561426433407178;333.3333333333333;-333.3689475976674
0.34800000000000025;-10264653437.0;-10255506592.0;197313.0;-1451.5198176172944;-1445.076299576223;5.395427819492625;-0.019747527005620213;-333.3333333333333;333.3135858063277
0.35200000000000026;-10270459517.0;-10261279907.0;164549.0;-1451.5198366799718;-1449.3949378024713;7.748108691601374;-0.004765669359585445;83.33333333333333;-83.33809900269291
0.35600000000000026;-10276265597.0;-10267196045.0;274608.0;-1451.5198205508796;-1473.6510012751967;38.60765656280296;0.00403227306833287;-1083.3333333333333;1083.3373656064016
0.36000000000000026;-10282071676.0;-10272991333.0;263816.0;-1451.51979278555;-1449.493613528177;13.802743354890708;0.006941332401311229;-500.0;500.0069413324013
0.36400000000000027;-10287877755.0;-10278792114.0;258517.0;-1451.5197672797763;-1454.0338877302484;18.02509809338244;0.0063764434230506595;-333.3333333333333;333.33970977675637
0.36800000000000027;-10293683835.0;-10284664307.0;324631.0;-1451.5197486727034;-1465.3623282851875;33.32040544964457;0.004651768222174724;250.0;-249.99534823177783
0.3720000000000003;-10299489914.0;-10290426636.0;280881.0;-1451.5197361142923;-1437.410293557264;2.7433935056017162;0.003139602767987526;666.6666666666666;-666.6635270638986
0.3760000000000003;-10305295993.0;-10296287842.0;336007.0;-1451.5197268968852;-1474.8154462161513;43.4561224136462;0.002304351767179469;83.33333333333333;-83.33102898156615
0.3800000000000003;-10311102072.0;-10302203979.0;446065.0;-1451.519718642624;-1468.564407054752;43.80857452142345;0.0020635653186218406;-1750.0;1750.0020635653186
0.3840000000000003;-10316908151.0;-10307911377.0;347384.0;-1451.5197100222056;-1431.1590933579057;0.48240967978654226;0.002155104596113233;750.0;-749.9978448954039
0.3880000000000003;-10322714230.0;-10313789063.0;418991.0;-1451.5197006593744;-1470.5362590910122;44.15600381796571;0.002340707794701302;-83.33333333333333;83.33567404112803
0.3920000000000003;-10328520309.0;-10319611816.0;435665.0;-1451.5196906908975;-1451.96555405052;26.585747690061226;0.0024921192220972443;1250.0;-1249.997507880778
0.3960000000000003;-10334326388.0;-10325434570.0;452340.0;-1451.5196804133943;-1462.039181955576;37.65988519367056;0.002569375794791995;-166.66666666666666;166.66923604246145
0.4000000000000003;-10340132467.0;-10331367188.0;578879.0;-1451.519670066642;-1478.0103192363308;61.223372561987844;0.0025866880832836614;-2500.0;2500.0025866880833
0.4040000000000003;-10345938546.0;-10337156982.0;562594.0;-1451.5196597775976;-1439.0867356610597;21.322699289793036;0.0025722611098899506;-166.66666666666666;166.66923892777655
0.4080000000000003;-10351744625.0;-10342963257.0;562790.0;-1451.5196495762689;-1455.5791885235458;37.8269224758028;0.002550332169448666;750.0;-749.9974496678306
0.4120000000000003;-10357550704.0;-10348824463.0;617917.0;-1451.5196394427476;-1456.2345703702122;41.78993457698857;0.0025333803250759956;833.3333333333334;-833.3307999530083
0.4160000000000003;-10363356783.0;-10354586792.0;574167.0;-1451.519629347602;-1442.4113473440334;25.341721725792695;0.002523786406527506;1750.0;-1749.9974762135935
0.4200000000000003;-10369162862.0;-10360420532.0;601828.0;-1451.5196192663059;-1453.5841247716696;38.17416927209206;0.0025203240170412755;-916.6666666666666;916.6691869906837
0.4240000000000003;-10374968940.0;-10366254272.0;629489.0;-1451.5196091852988;-1455.9344868061617;42.184201396562;0.0025202517690559034;583.3333333333334;-583.3308130815643
0.4280000000000003;-10380775019.0;-10371945190.0;514329.0;-1451.519599107177;-1423.6612739643977;3.0013986359965656;0.0025195304260705598;750.0;-749.9974804695739
0.43200000000000033;-10386581098.0;-10377784424.0;547484.0;-1451.5195890316518;-1466.7345025795103;48.063937330994804;0.002518881331070588;1333.3333333333333;-1333.3308144520022
0.43600000000000033;-10392387176.0;-10383568726.0;525707.0;-1451.5195789630518;-1447.0188254924865;27.04165032105243;0.0025171499942189257;-166.66666666666666;166.66918381666088
0.44000000000000034;-10398193255.0;-10389265137.0;416040.0;-1451.519568904262;-1424.388225030318;-2.1689600683776007;0.0025146974280687573;583.3333333333334;-583.3308186359053
0.44400000000000034;-10403999333.0;-10395076904.0;421728.0;-1451.5195588547056;-1450.6105471986905;24.394652164689205;0.0025123891305156576;-250.0;250.00251238913052
0.44800000000000034;-10409805412.0;-10400850220.0;388966.0;-1451.5195488215961;-1432.7483532788754;4.566748300070003;0.002508277361812361;416.6666666666667;-416.6641583893049
0.45200000000000035;-10415611490.0;-10406568604.0;301271.0;-1451.5195387931033;-1437.4607025497482;4.017407614147487;0.002507123213035811;583.3333333333334;-583.3308262101203
0.45600000000000035;-10421417568.0;-10412407837.0;334426.0;-1451.5195287784597;-1459.013299286194;27.55931438192033;0.0025036608803929994;-833.3333333333334;833.3358369942138
0.46000000000000035;-10427223647.0;-10418131714.0;252225.0;-1451.5195187753584;-1429.9775574976952;-6.408477383442914;0.002500775337921368;583.3333333333334;-583.3308325579954
0.46400000000000036;-10433029725.0;-10423888550.0;202982.0;-1451.519508784953;-1443.1947833079175;3.854178436806478;0.0024976013719424373;-333.3333333333333;333.33583093470526
0.46800000000000036;-10438835803.0;-10429727783.0;236137.0;-1451.5194988049343;-1461.4697236653417;24.118428792455916;0.002495004650882038;-166.66666666666666;166.66916167131754
0.47200000000000036;-10444641882.0;-10435479126.0;181402.0;-1451.519488839343;-1435.733488838099;-4.901896048432263;0.002491397822268482;-500.0;500.00249139782227
