Zeit[sec];Sollposition[°];Istposition[°];Positionsschleppfehler[°];Sollgeschwindigkeit[°/s];Istgeschwindigkeit[°/s];Geschwindigkeitsdifferenz[°/s];Sollbeschleunigung[°/s*s];Istbeschleunigung[°/s*s];Beschleunigungsdifferenz[°/s*s]
0.0;9817499999.0;9817500003.0;-4.0;0.0;-0.00023999999999999998;0.0;0.0;0.0;0.0
0.004;9817499999.0;9817500003.0;-4.0;0.0;-0.00023999999999999998;0.0;0.0;0.0;0.0
0.008;9817499999.0;9817500003.0;-4.0;0.0;-0.00023999999999999998;0.0;0.0;0.0;0.0
0.012;9817499999.0;9817500003.0;-4.0;0.0;-0.00023999999999999998;0.0;0.0;0.0;0.0
0.016;9817499999.0;9817500003.0;-4.0;0.0;-0.00023999999999999998;0.0;0.0;0.0;0.0
0.02;9817499999.0;9817500003.0;-4.0;0.0;-0.00023999999999999998;0.0;0.0;0.0;0.0
0.024;9817499999.0;9817500003.0;-4.0;0.0;-0.00023999999999999998;0.0;0.0;0.0;0.0
0.028;9817499999.0;9817500003.0;-4.0;0.0;-0.00023999999999999998;0.0;0.0;0.0;0.0
0.032;9817499999.0;9817500003.0;-4.0;0.0;-0.00023999999999999998;0.0;0.0;0.0;0.0
0.036000000000000004;9817499999.0;9817500003.0;-4.0;0.0;-0.00023999999999999998;0.0;0.0;0.0;0.0
0.04000000000000001;9817499999.0;9817500003.0;-4.0;0.0;-0.00023999999999999998;0.0;0.0;0.0;0.0
0.04400000000000001;9817499999.0;9817500003.0;-4.0;0.0;-0.00023999999999999998;0.0;0.0;0.0;0.0
0.048000000000000015;9817499999.0;9817500003.0;-4.0;0.0;-0.00023999999999999998;0.0;0.0;0.0;0.0
0.05200000000000002;9817499999.0;9817500003.0;-4.0;0.0;-0.00023999999999999998;0.0;0.0;0.0;0.0
0.05600000000000002;9817499999.0;9817500003.0;-4.0;0.0;-0.00023999999999999998;0.0;0.0;0.0;0.0
0.060000000000000026;9817405908.0;9817500003.0;-4.0;-23.52286182174397;-0.00023999999999999998;0.0;-5880.715455435992;0.0;-5880.715455435992
0.06400000000000003;9817321633.0;9817500003.0;-94095.0;-21.068676129409287;-0.00023999999999999998;-29.16832182174397;613.5464230836707;0.0;613.5464230836707
0.06800000000000003;9817217774.0;9817383329.0;-61696.0;-25.964946777001696;-29.16856182174397;4.398125692334684;-1224.0676618981024;0.0;-1224.0676618981024
0.07200000000000004;9817107291.0;9817284248.0;-66474.0;-27.62070764401563;-24.770436129409287;-5.18295064759241;-413.9402167534838;-83.33333333333333;-330.6068834201505
0.07600000000000004;9816994788.0;9817164435.0;-57144.0;-28.12562561365401;-29.953386777001697;-1.095960867013936;-126.22949240959436;-166.66666666666666;40.4371742570723
0.08000000000000004;9816879437.0;9817040238.0;-45450.0;-28.837700900124087;-31.049347644015633;0.19672203036162372;-178.0188216175196;-250.0;71.98117838248041
0.08400000000000005;9816764360.0;9816916828.0;-37391.0;-28.769277898141045;-30.85262561365401;-0.22853528647007693;17.105750495760574;-250.0;267.10575049576056
0.08800000000000005;9816658815.0;9816792504.0;-28144.0;-26.38629613113428;-31.081160900124086;0.6232430019830417;595.7454417516911;-250.0;845.7454417516911
0.09200000000000005;9816570217.0;9816670673.0;-11858.0;-22.149446854992647;-30.457917898141044;3.3601417670067626;1059.2123190354084;-250.0;1309.2123190354084
0.09600000000000006;9816504140.0;9816562282.0;7935.0;-16.519351376568512;-27.09777613113428;5.424429276141634;1407.5238696060337;-250.0;1657.5238696060337
0.10000000000000006;9816469597.0;9816475589.0;28551.0;-8.63564955631983;-21.673346854992648;6.867055478424136;1970.9254550621704;-250.0;2220.9254550621704
0.10400000000000006;9816470844.0;9816416364.0;53233.0;0.31159193512666644;-14.806291376568511;9.364621820248681;2236.8103728616243;-166.66666666666666;2403.477039528291
0.10800000000000007;9816505506.0;9816394598.0;76246.0;8.665657423016846;-5.44166955631983;10.328021491446496;2088.5163719725447;-83.33333333333333;2171.849705305878
0.11200000000000007;9816571963.0;9816414143.0;91363.0;16.614181475832943;4.886351935126666;9.261085487890181;1987.1310132040244;0.0;1987.1310132040244
0.11600000000000008;9816666717.0;9816470732.0;101231.0;23.688566799417185;14.147437423016846;8.540604052816096;1768.5963308960604;0.0;1768.5963308960604
0.12000000000000008;9816781496.0;9816561484.0;105233.0;28.69462002464156;22.688041475832943;7.314505323584239;1251.5133063060935;83.33333333333333;1168.1799729727602
0.12400000000000008;9816906825.0;9816681494.0;100002.0;31.332358722830723;30.002546799417182;4.692193225224379;659.434674547291;166.66666666666666;492.76800788062434
0.12800000000000009;9817035284.0;9816820272.0;86553.0;32.114688038311954;34.69474002464156;1.830798698189163;195.5823288703078;250.0;-54.4176711296922
0.1320000000000001;9817160269.0;9816966374.0;68910.0;31.246159072663804;36.525538722830724;-0.27625068451877155;-217.13224141203736;250.0;-467.13224141203733
0.1360000000000001;9817274391.0;9817111371.0;48898.0;28.53071137213006;36.24928803831195;-2.06924896564815;-678.861925133436;250.0;-928.861925133436
0.1400000000000001;9817373521.0;9817248091.0;26300.0;24.782290627948296;34.1800390726638;-4.071327700533743;-937.1051860454411;333.3333333333333;-1270.4385193787743
0.1440000000000001;9817499999.0;9817368525.0;4996.0;31.619715211184953;30.10871137213006;-5.026660744181765;1709.3561458091644;250.0;1459.3561458091644
0.1480000000000001;9817499999.0;9817468853.0;31146.0;0.0;25.082050627948295;8.40642458323666;-7904.928802796238;250.0;-8154.928802796238
0.1520000000000001;9817499999.0;9817602806.0;-102807.0;0.0;33.488475211184955;-39.65689521118495;0.0;83.33333333333333;-83.33333333333333
0.1560000000000001;9817561746.0;9817578133.0;-78134.0;15.436516750327733;-6.168419999999999;1.4803799999999994;3859.1291875819334;83.33333333333333;3775.7958542486
0.16000000000000011;9817562703.0;9817559381.0;2365.0;0.23929728660439198;-4.68804;20.266456750327734;-3799.304865930835;0.0;-3799.304865930835
0.16400000000000012;9817558490.0;9817621694.0;-58991.0;-1.0532357364587852;15.578416750327733;-18.87857946372334;-323.1332557657943;0.0;-323.1332557657943
0.16800000000000012;9817553811.0;9817608494.0;-50004.0;-1.169801455679949;-3.3001627133956077;-0.7533130230631775;-29.14142980529094;0.0;-29.14142980529094
0.17200000000000013;9817499999.0;9817592281.0;-38470.0;-13.45277684479339;-4.053475736458785;0.5754742807788364;-3070.7438472783606;0.0;-3070.7438472783606
0.17600000000000013;9817499999.0;9817578369.0;-78370.0;0.0;-3.478001455679949;-14.67697538911344;3363.1942111983476;0.0;3363.1942111983476
0.18000000000000013;9817499999.0;9817505750.0;-5751.0;0.0;-18.15497684479339;17.80991684479339;0.0;0.0;0.0
0.18400000000000014;9817499999.0;9817504370.0;-4371.0;0.0;-0.34506;0.08279999999999998;0.0;0.0;0.0
0.18800000000000014;9817499999.0;9817503321.0;-3322.0;0.0;-0.26226;0.06294000000000002;0.0;0.0;0.0
0.19200000000000014;9817499999.0;9817502524.0;-2525.0;0.0;-0.19931999999999997;0.047819999999999974;0.0;0.0;0.0
0.19600000000000015;9817499999.0;9817501918.0;-1919.0;0.0;-0.1515;0.03636;0.0;0.0;0.0
0.20000000000000015;9817499999.0;9817501458.0;-1459.0;0.0;-0.11513999999999999;0.0276;0.0;83.33333333333333;-83.33333333333333
0.20400000000000015;9817499999.0;9817501108.0;-1109.0;0.0;-0.08753999999999999;0.021000000000000005;0.0;166.66666666666666;-166.66666666666666
0.20800000000000016;9817499999.0;9817500842.0;-843.0;0.0;-0.06653999999999999;0.015959999999999995;0.0;250.0;-250.0
0.21200000000000016;9817499999.0;9817500640.0;-641.0;0.0;-0.05057999999999999;0.012119999999999999;0.0;250.0;-250.0
0.21600000000000016;9817499999.0;9817500487.0;-488.0;0.0;-0.038459999999999994;0.009179999999999997;0.0;250.0;-250.0
0.22000000000000017;9817499999.0;9817500370.0;-371.0;0.0;-0.029279999999999997;0.0070199999999999985;0.0;250.0;-250.0
0.22400000000000017;9817499999.0;9817500281.0;-282.0;0.0;-0.02226;0.005340000000000001;0.0;250.0;-250.0
0.22800000000000017;9817499999.0;9817500214.0;-215.0;0.0;-0.016919999999999998;0.004019999999999999;0.0;250.0;-250.0
0.23200000000000018;9817499999.0;9817500163.0;-164.0;0.0;-0.012899999999999998;0.0030599999999999985;0.0;166.66666666666666;-166.66666666666666
0.23600000000000018;9817499999.0;9817500124.0;-125.0;0.0;-0.00984;0.00234;0.0;83.33333333333333;-83.33333333333333
0.24000000000000019;9817499999.0;9817500094.0;-95.0;0.0;-0.0075;0.0018000000000000004;0.0;0.0;0.0
0.2440000000000002;9817499999.0;9817500072.0;-73.0;0.0;-0.005699999999999999;0.00132;0.0;0.0;0.0
0.2480000000000002;9817499999.0;9817500055.0;-56.0;0.0;-0.004379999999999999;0.0010199999999999996;0.0;-83.33333333333333;83.33333333333333
0.25200000000000017;9817499999.0;9817500042.0;-43.0;0.0;-0.0033599999999999997;0.0007799999999999999;0.0;-166.66666666666666;166.66666666666666
0.25600000000000017;9817499999.0;9817500032.0;-33.0;0.0;-0.00258;0.0005999999999999998;0.0;-250.0;250.0
0.2600000000000002;9817499999.0;9817500025.0;-26.0;0.0;-0.00198;0.00042000000000000023;0.0;-250.0;250.0
0.2640000000000002;9817499999.0;9817500019.0;-20.0;0.0;-0.0015599999999999998;0.00035999999999999986;0.0;-250.0;250.0
0.2680000000000002;9817499999.0;9817500015.0;-16.0;0.0;-0.0012;0.00023999999999999998;0.0;-333.3333333333333;333.3333333333333
0.2720000000000002;9817499999.0;9817500012.0;-13.0;0.0;-0.0009599999999999999;0.00018000000000000004;0.0;-250.0;250.0
0.2760000000000002;9817499999.0;9817500009.0;-10.0;0.0;-0.0007799999999999999;0.00017999999999999993;0.0;-250.0;250.0
0.2800000000000002;9817499999.0;9817500007.0;-8.0;0.0;-0.0006;0.00011999999999999999;0.0;-83.33333333333333;83.33333333333333
0.2840000000000002;9817499999.0;9817500006.0;-7.0;0.0;-0.00047999999999999996;5.9999999999999995e-05;0.0;-83.33333333333333;83.33333333333333
0.2880000000000002;9817499999.0;9817500005.0;-6.0;0.0;-0.00041999999999999996;5.9999999999999995e-05;0.0;0.0;0.0
0.2920000000000002;9817499999.0;9817500004.0;-5.0;0.0;-0.00035999999999999997;5.9999999999999995e-05;0.0;0.0;0.0
0.2960000000000002;9817499999.0;9817500003.0;-4.0;0.0;-0.0003;5.9999999999999995e-05;0.0;0.0;0.0
0.3000000000000002;9817499999.0;9817500003.0;-4.0;0.0;-0.00023999999999999998;0.0;0.0;0.0;0.0
0.3040000000000002;9817499999.0;9817500003.0;-4.0;0.0;-0.00023999999999999998;0.0;0.0;0.0;0.0
0.3080000000000002;9817499999.0;9817500003.0;-4.0;0.0;-0.00023999999999999998;0.0;0.0;0.0;0.0
0.3120000000000002;9817499999.0;9817500003.0;-4.0;0.0;-0.00023999999999999998;0.0;0.0;0.0;0.0
0.3160000000000002;9817499999.0;9817500003.0;-4.0;0.0;-0.00023999999999999998;0.0;0.0;0.0;0.0
0.32000000000000023;9817499999.0;9817500003.0;-4.0;0.0;-0.00023999999999999998;0.0;0.0;0.0;0.0
0.32400000000000023;9817499999.0;9817500003.0;-4.0;0.0;-0.00023999999999999998;0.0;0.0;0.0;0.0
0.32800000000000024;9817499999.0;9817500003.0;-4.0;0.0;-0.00023999999999999998;0.0;0.0;0.0;0.0
0.33200000000000024;9817499999.0;9817500003.0;-4.0;0.0;-0.00023999999999999998;0.0;0.0;0.0;0.0
0.33600000000000024;9817499999.0;9817500003.0;-4.0;0.0;-0.00023999999999999998;0.0;0.0;0.0;0.0
0.34000000000000025;9817499999.0;9817500003.0;-4.0;0.0;-0.00023999999999999998;0.0;0.0;0.0;0.0
0.34400000000000025;9817499999.0;9817500003.0;-4.0;0.0;-0.00023999999999999998;0.0;0.0;0.0;0.0
0.34800000000000025;9817499999.0;9817500003.0;-4.0;0.0;-0.00023999999999999998;0.0;0.0;0.0;0.0
0.35200000000000026;9817499999.0;9817500003.0;-4.0;0.0;-0.00023999999999999998;0.0;0.0;0.0;0.0
0.35600000000000026;9817499999.0;9817500003.0;-4.0;0.0;-0.00023999999999999998;0.0;0.0;0.0;0.0
0.36000000000000026;9817499999.0;9817500003.0;-4.0;0.0;-0.00023999999999999998;0.0;0.0;0.0;0.0
0.36400000000000027;9817499999.0;9817500003.0;-4.0;0.0;-0.00023999999999999998;0.0;0.0;0.0;0.0
0.36800000000000027;9817499999.0;9817500003.0;-4.0;0.0;-0.00023999999999999998;0.0;0.0;0.0;0.0
0.3720000000000003;9817499999.0;9817500003.0;-4.0;0.0;-0.00023999999999999998;0.0;0.0;0.0;0.0
0.3760000000000003;9817499999.0;9817500003.0;-4.0;0.0;-0.00023999999999999998;0.0;0.0;0.0;0.0
0.3800000000000003;9817499999.0;9817500003.0;-4.0;0.0;-0.00023999999999999998;0.0;0.0;0.0;0.0
0.3840000000000003;9817499999.0;9817500003.0;-4.0;0.0;-0.00023999999999999998;0.0;0.0;0.0;0.0
0.3880000000000003;9817499999.0;9817500003.0;-4.0;0.0;-0.00023999999999999998;0.0;0.0;0.0;0.0
0.3920000000000003;9817499999.0;9817500003.0;-4.0;0.0;-0.00023999999999999998;0.0;0.0;0.0;0.0
0.3960000000000003;9817499999.0;9817500003.0;-4.0;0.0;-0.00023999999999999998;0.0;0.0;0.0;0.0
0.4000000000000003;9817499999.0;9817500003.0;-4.0;0.0;-0.00023999999999999998;0.0;0.0;0.0;0.0
0.4040000000000003;9817499999.0;9817500003.0;-4.0;0.0;-0.00023999999999999998;0.0;0.0;0.0;0.0
0.4080000000000003;9817499999.0;9817500003.0;-4.0;0.0;-0.00023999999999999998;0.0;0.0;0.0;0.0
0.4120000000000003;9817499999.0;9817500003.0;-4.0;0.0;-0.00023999999999999998;0.0;0.0;0.0;0.0
0.4160000000000003;9817499999.0;9817500003.0;-4.0;0.0;-0.00023999999999999998;0.0;0.0;0.0;0.0
0.4200000000000003;9817499999.0;9817500003.0;-4.0;0.0;-0.00023999999999999998;0.0;0.0;0.0;0.0
0.4240000000000003;9817553541.0;9817500003.0;-4.0;13.385280530082396;-0.00023999999999999998;0.0;3346.3201325205987;0.0;3346.3201325205987
0.4280000000000003;9817559812.0;9817500003.0;53538.0;1.5678842603943548;-0.00023999999999999998;16.5978005300824;-2954.34906742201;0.0;-2954.34906742201
0.43200000000000033;9817574151.0;9817566393.0;-6581.0;3.5846665255922656;16.597560530082397;-15.424536269688042;504.1955662994777;0.0;504.1955662994777
0.43600000000000033;9817607726.0;9817571085.0;3066.0;8.393844008717956;1.1730242603943548;2.5956022651979107;1202.2943707814225;0.0;1202.2943707814225
0.44000000000000034;9817668189.0;9817586159.0;21567.0;15.115692027793301;3.7686265255922655;5.9192374831256895;1680.4620047688363;0.0;1680.4620047688363
0.44400000000000034;9817753825.0;9817624910.0;43279.0;21.4088940172881;9.687864008717955;8.024568019075346;1573.3004973737002;0.0;1573.3004973737002
0.44800000000000034;9817858454.0;9817695759.0;58066.0;26.15727595407444;17.7124320277933;7.1804219894948;1187.0954841965845;83.33333333333333;1103.762150863251
0.45200000000000035;9817974926.0;9817795330.0;63124.0;29.118023459423327;24.8928540172881;5.051861936786338;740.1868763372219;166.66666666666666;573.5202096705552
0.45600000000000035;9818096118.0;9817915108.0;59818.0;30.29806614900176;29.94471595407444;2.76238750534889;295.010672394608;250.0;45.01067239460799
0.46000000000000035;9818215994.0;9818045936.0;50182.0;29.969005409636;32.70710345942333;0.6018826895784315;-82.26518484143952;250.0;-332.2651848414395
0.46400000000000036;9818331239.0;9818179171.0;36823.0;28.811280588666737;33.30898614900176;-1.1306007393657609;-289.431205242316;250.0;-539.4312052423161
0.46800000000000036;9818436126.0;9818307884.0;23355.0;26.221766094140584;32.178385409636;-1.9658048209692645;-647.3786236315382;250.0;-897.3786236315382
0.47200000000000036;9818518449.0;9818428734.0;7392.0;20.580744344413716;30.212580588666736;-3.5472944945261524;-1410.255437431717;250.0;-1660.255437431717
0.47600000000000037;9818570118.0;9818535395.0;-16946.0;12.91709774933269;26.665286094140583;-7.1013017497268685;-1915.9116487702565;250.0;-2165.9116487702568
0.48000000000000037;9818588587.0;9818613650.0;-43532.0;4.617394127794467;19.563984344413715;-9.258806595081024;-2074.925905384556;166.66666666666666;-2241.5925720512228
0.4840000000000004;9818568963.0;9818654870.0;-66283.0;-4.906059131251907;10.30517774933269;-9.664763621538224;-2380.8633147615933;166.66666666666666;-2547.5299814282603
0.4880000000000004;9818510584.0;9818657431.0;-88468.0;-14.594672916160016;0.6404141277944668;-10.854553259046373;-2422.1534462270274;83.33333333333333;-2505.4867795603604
0.4920000000000004;9818421260.0;9818616575.0;-105991.0;-22.3311912940292;-10.214139131251907;-10.73999378490811;-1934.1295944672959;0.0;-1934.1295944672959
0.4960000000000004;9818311096.0;9818532759.0;-111499.0;-27.540849449669093;-20.954132916160017;-8.066998377869183;-1302.4145389099733;-83.33333333333333;-1219.08120557664
0.5000000000000003;9818189077.0;9818416675.0;-105579.0;-30.504678528613688;-29.0211312940292;-4.854458155639893;-740.9572697361489;-166.66666666666666;-574.2906030694821
0.5040000000000003;9818063312.0;9818281173.0;-92096.0;-31.441343374407996;-33.87558944966909;-2.1548490789445935;-234.16621144857697;-166.66666666666666;-67.49954478191032
0.5080000000000003;9817940082.0;9818137052.0;-73740.0;-30.80759580104505;-36.030438528613686;0.16469515420568825;158.4368933407365;-333.3333333333333;491.7702266740698
0.5120000000000003;9817820777.0;9817993590.0;-53508.0;-29.82611953458228;-35.865743374408;1.8476675733629477;245.3690666156927;-333.3333333333333;578.702399949026
0.5160000000000003;9817707946.0;9817857518.0;-36741.0;-28.20781986430725;-34.01807580104505;1.9874962664627702;404.5749175687572;-333.3333333333333;737.9082509020905
0.5200000000000004;9817612681.0;9817729396.0;-21450.0;-23.816255234956284;-32.03057953458228;2.5357596702750307;1097.8911573377418;-250.0;1347.8911573377418
0.5240000000000004;9817499999.0;9817611417.0;1264.0;-28.17033011732935;-29.49481986430725;5.754404629350965;-1088.5187205932664;-250.0;-838.5187205932665
0.5280000000000004;9817499999.0;9817516456.0;-16457.0;0.0;-23.740415234956284;-5.417334882373066;7042.582529332338;-166.66666666666666;7209.249195999004
0.5320000000000004;9817499999.0;9817399825.0;100174.0;0.0;-29.15775011732935;35.168190117329345;0.0;-83.33333333333333;83.33333333333333
0.5360000000000004;9817499999.0;9817423866.0;76133.0;0.0;6.010439999999999;-1.4424599999999996;0.0;0.0;0.0
0.5400000000000004;9817499999.0;9817442137.0;57862.0;0.0;4.5679799999999995;-1.0962599999999996;0.0;0.0;0.0
0.5440000000000004;9817499999.0;9817456023.0;43976.0;0.0;3.47172;-0.8331600000000003;0.0;0.0;0.0
0.5480000000000004;9817499999.0;9817466577.0;33422.0;0.0;2.6385599999999996;-0.6332399999999998;0.0;0.0;0.0
0.5520000000000004;9817499999.0;9817474598.0;25401.0;0.0;2.0053199999999998;-0.4812599999999998;0.0;0.0;0.0
0.5560000000000004;9817499999.0;9817480694.0;19305.0;0.0;1.52406;-0.3657600000000001;0.0;0.0;0.0
0.5600000000000004;9817499999.0;9817485327.0;14672.0;0.0;1.1582999999999999;-0.27798;0.0;0.0;0.0
0.5640000000000004;9817499999.0;9817488848.0;11151.0;0.0;0.8803199999999999;-0.2112599999999999;0.0;0.0;0.0
0.5680000000000004;9817499999.0;9817491524.0;8475.0;0.0;0.66906;-0.16056000000000004;0.0;0.0;0.0
0.5720000000000004;9817499999.0;9817493557.0;6442.0;0.0;0.5085;-0.12197999999999998;0.0;-83.33333333333333;83.33333333333333
0.5760000000000004;9817596862.0;9817495103.0;4896.0;24.21550707937515;0.38652;-0.09276000000000001;6053.876769843788;-83.33333333333333;6137.210103177121
0.5800000000000004;9817683788.0;9817496278.0;100584.0;21.731691944071628;0.29375999999999997;29.95678707937515;-620.9537838258807;-166.66666666666666;-454.28711715921406
0.5840000000000004;9817790968.0;9817617280.0;66508.0;26.79487781424362;30.25054707937515;-4.5283751353035235;1265.796467542998;-83.33333333333333;1349.1298008763313
0.5880000000000004;9817905118.0;9817720168.0;70800.0;28.537599498446788;25.722171944071626;5.320705870171992;435.68042105079206;-83.33333333333333;519.0137543841254
0.5920000000000004;9818021625.0;9817844339.0;60779.0;29.126649757854246;31.042877814243617;1.141461684203172;147.2625648518644;0.0;147.2625648518644
0.5960000000000004;9818141524.0;9817973076.0;48549.0;29.97473029020641;32.18433949844679;-0.14474974059254464;212.0201330880409;0.0;212.0201330880409
0.6000000000000004;9818261833.0;9818101234.0;40290.0;30.077230681117943;32.039589757854245;0.3525405323521653;25.62509772788335;0.0;25.62509772788335
0.6040000000000004;9818373275.0;9818230802.0;31031.0;27.860550137794913;32.39213029020641;-0.4530396090884672;-554.1701358307573;0.0;-554.1701358307573
0.6080000000000004;9818468459.0;9818358558.0;14717.0;23.796015577465162;31.939090681117943;-3.195520543323031;-1016.1336400824376;83.33333333333333;-1099.466973415771
0.6120000000000004;9818541120.0;9818473532.0;-5073.0;18.165177236168873;28.74357013779491;-5.251934560329747;-1407.7095853240723;83.33333333333333;-1491.0429186574058
0.6160000000000004;9818580258.0;9818567498.0;-26378.0;9.784459732146017;23.491635577465164;-6.909138341296291;-2095.179376005714;166.66666666666666;-2261.8460426723805
0.6200000000000004;9818580086.0;9818633827.0;-53569.0;-0.04281943338981432;16.582497236168873;-10.012177504022855;-2456.8197913839576;83.33333333333333;-2540.153124717291
