Zeit[sec];Sollposition[°];Istposition[°];Positionsschleppfehler[°];Sollgeschwindigkeit[°/s];Istgeschwindigkeit[°/s];Geschwindigkeitsdifferenz[°/s];Sollbeschleunigung[°/s*s];Istbeschleunigung[°/s*s];Beschleunigungsdifferenz[°/s*s]
0.0;-9979199999.0;-9979199995.0;-4.0;0.0;-0.00023999999999999998;0.0;0.0;0.0;0.0
0.004;-9979199999.0;-9979199995.0;-4.0;0.0;-0.00023999999999999998;0.0;0.0;0.0;0.0
0.008;-9979199999.0;-9979199995.0;-4.0;0.0;-0.00023999999999999998;0.0;0.0;0.0;0.0
0.012;-9979199999.0;-9979199995.0;-4.0;0.0;-0.00023999999999999998;0.0;0.0;0.0;0.0
0.016;-9979199999.0;-9979199995.0;-4.0;0.0;-0.00023999999999999998;0.0;0.0;0.0;0.0
0.02;-9979199999.0;-9979199995.0;-4.0;0.0;-0.00023999999999999998;0.0;0.0;0.0;0.0
0.024;-9979199999.0;-9979199995.0;-4.0;0.0;-0.00023999999999999998;0.0;0.0;0.0;0.0
0.028;-9979199999.0;-9979199995.0;-4.0;0.0;-0.00023999999999999998;0.0;0.0;0.0;0.0
0.032;-9979199999.0;-9979199995.0;-4.0;0.0;-0.00023999999999999998;0.0;0.0;0.0;0.0
0.036000000000000004;-9979199999.0;-9979199995.0;-4.0;0.0;-0.00023999999999999998;0.0;0.0;0.0;0.0
0.04000000000000001;-9979199999.0;-9979199995.0;-4.0;0.0;-0.00023999999999999998;0.0;0.0;0.0;0.0
0.04400000000000001;-9979199999.0;-9979199995.0;-4.0;0.0;-0.00023999999999999998;0.0;0.0;0.0;0.0
0.048000000000000015;-9979199999.0;-9979199995.0;-4.0;0.0;-0.00023999999999999998;0.0;0.0;0.0;0.0
0.05200000000000002;-9979199999.0;-9979199995.0;-4.0;0.0;-0.00023999999999999998;0.0;0.0;0.0;0.0
0.05600000000000002;-9979199999.0;-9979199995.0;-4.0;0.0;-0.00023999999999999998;0.0;0.0;0.0;0.0
0.060000000000000026;-9979200595.0;-9979199995.0;-4.0;-0.14881551164730009;-0.00023999999999999998;0.0;-37.203877911825025;0.0;-37.203877911825025
0.06400000000000003;-9979206527.0;-9979199995.0;-600.0;-1.4830467144923674;-0.00023999999999999998;-0.1845755116473001;-333.5578007112668;0.0;-333.5578007112668
0.06800000000000003;-9979395423.0;-9979200734.0;-5793.0;-47.22410966669879;-0.1848155116473001;-1.6458112028450673;-11435.265738051605;0.0;-11435.265738051605
0.07200000000000004;-9979736670.0;-9979208056.0;-187367.0;-85.3117081898253;-1.8306267144923674;-56.635502952206416;-9521.899630781627;0.0;-9521.899630781627
0.07600000000000004;-9980363845.0;-9979441920.0;-294750.0;-156.79379372558867;-58.466129666698784;-44.530578523126515;-17870.521383940842;-83.33333333333333;-17787.18805060751
0.08000000000000004;-9981312493.0;-9979853906.0;-509939.0;-237.1619309082111;-102.9967081898253;-84.39342553576337;-20092.03429565561;-416.6666666666667;-19675.36762898894
0.08400000000000005;-9982655662.0;-9980603466.0;-709027.0;-335.79219723358943;-187.39013372558867;-92.31341718262246;-24657.56658134458;-833.3333333333334;-23824.23324801125
0.08800000000000005;-9984558398.0;-9981722280.0;-933382.0;-475.6838913261856;-279.7035509082111;-112.09156632537832;-34972.92352314904;-1500.0;-33472.92352314904
0.09200000000000005;-9987200980.0;-9983289460.0;-1268938.0;-660.6456364778562;-391.79511723358945;-160.02505409259612;-46240.43628791766;-2166.6666666666665;-44073.76962125099
0.09600000000000006;-9990742252.0;-9985496740.0;-1704240.0;-885.3178371590952;-551.8201713261856;-211.07986515167067;-56168.050170309754;-3250.0;-52918.050170309754
0.10000000000000006;-9995314483.0;-9988548340.0;-2193912.0;-1143.0577019746154;-762.9000364778562;-254.052520681239;-64434.96620388004;-4500.0;-59934.96620388004
0.10400000000000006;-10001041043.0;-9992616150.0;-2698333.0;-1431.6399796891615;-1016.9525571590952;-288.00512481552005;-72145.56942863652;-6083.333333333333;-66062.23609530319
0.10800000000000007;-10008028743.0;-9997835980.0;-3205063.0;-1746.9249913106598;-1304.9576819746153;-318.9860777145461;-78821.2529053746;-8000.0;-70821.2529053746
0.11200000000000007;-10016340624.0;-10004331755.0;-3696988.0;-2077.970056665372;-1623.9437596891614;-344.80051162149834;-82761.26633867802;-10250.0;-72511.26633867802
0.11600000000000008;-10026011029.0;-10012206732.0;-4133892.0;-2417.601185058512;-1968.7442713106598;-357.25930535471207;-84907.782098285;-12750.0;-72157.782098285
0.12000000000000008;-10037049014.0;-10021510746.0;-4500283.0;-2759.495949867179;-2326.003576665372;-361.6145883931399;-85473.69120216684;-15416.666666666666;-70057.02453550017
0.12400000000000008;-10049415494.0;-10032261218.0;-4787796.0;-3091.619864754604;-2687.6181650585117;-359.14554480866764;-83030.97872185617;-18166.666666666668;-64864.312055189504
0.12800000000000009;-10063032662.0;-10044448272.0;-4967222.0;-3404.2920463388364;-3046.7637098671794;-342.8894748874245;-78168.04539605812;-21000.0;-57168.04539605812
0.1320000000000001;-10077800428.0;-10058006884.0;-5025778.0;-3691.941227266036;-3389.653184754604;-316.1855415842324;-71912.29523179993;-23750.0;-48162.29523179993
0.1360000000000001;-10093596103.0;-10072830238.0;-4970190.0;-3948.9186428186867;-3705.8387263388363;-284.31390092719994;-64244.35388816267;-26416.666666666668;-37827.687221495995
0.1400000000000001;-10110274792.0;-10088790848.0;-4805255.0;-4169.671949861107;-3990.1526272660362;-247.08131555265072;-55188.32676060515;-28916.666666666668;-26271.66009393848
0.1440000000000001;-10127683208.0;-10105739783.0;-4535009.0;-4352.103877614464;-4237.233942818687;-204.53854704242076;-45607.98193833921;-31083.333333333332;-14524.648605005876
0.1480000000000001;-10145675215.0;-10123506872.0;-4176336.0;-4498.001365552642;-4441.772489861108;-160.9115477533569;-36474.37198454441;-33000.0;-3474.3719845444048
0.1520000000000001;-10164108185.0;-10141917608.0;-3757607.0;-4608.242428022768;-4602.684037614465;-120.77374793817762;-27560.265617531513;-34583.333333333336;7023.0677158018225
0.1560000000000001;-10182853090.0;-10160811439.0;-3296746.0;-4686.225935014513;-4723.457785552642;-82.5894024701256;-19495.876747936338;-35833.333333333336;16337.456585397
0.16000000000000011;-10201815339.0;-10180035627.0;-2817463.0;-4740.562144616521;-4806.047188022768;-49.22652699174523;-13584.05240050206;-36833.333333333336;23249.280932831276
0.16400000000000012;-10220923216.0;-10199456721.0;-2358618.0;-4776.969064492764;-4855.273715014513;-26.805509602007987;-9101.72996906067;-37416.666666666664;28314.936697605994
0.16800000000000012;-10240113891.0;-10218985037.0;-1938179.0;-4797.668372304533;-4882.079224616521;-11.180579876243428;-5174.826952942112;-37916.666666666664;32741.839713724552
0.17200000000000013;-10259338812.0;-10238558076.0;-1555815.0;-4806.230091055286;-4893.2598044927645;2.242532188231962;-2140.429687688311;-38083.333333333336;35942.90364564503
0.17600000000000013;-10278568215.0;-10258122145.0;-1216667.0;-4807.35048165446;-4891.0172723045325;11.78716124924631;-280.0976497935608;-38250.0;37969.90235020644
0.18000000000000013;-10297789059.0;-10277639065.0;-929150.0;-4805.210685328026;-4879.230111055286;16.130629400826365;534.9490816086018;-38166.666666666664;38701.61574827527
0.18400000000000014;-10316999305.0;-10297091462.0;-697597.0;-4802.561360940775;-4863.09948165446;16.032976326434436;662.3310968127498;-38083.333333333336;38745.664430146084
0.18800000000000014;-10336201965.0;-10316479728.0;-519577.0;-4800.66477353023;-4847.066505328025;13.330524387250989;474.1468526360677;-37916.666666666664;38390.813519302734
0.19200000000000014;-10355400943.0;-10335814671.0;-387294.0;-4799.744296968565;-4833.735980940774;9.833567410543765;230.1191404162637;-37916.666666666664;38146.785807082924
0.19600000000000015;-10374599062.0;-10355110280.0;-290663.0;-4799.529497893896;-4823.902413530231;6.718336561665637;53.699768667229364;-37750.0;37803.699768667226
0.20000000000000015;-10393797681.0;-10374379016.0;-220046.0;-4799.654438044558;-4817.184076968565;4.451819074668492;-31.23503766551039;-37750.0;37718.76496233449
0.20400000000000015;-10412997090.0;-10393629945.0;-167736.0;-4799.852053108908;-4812.7322578938965;3.0136598493381825;-49.40376608738006;-37416.666666666664;37367.262900579284
0.20800000000000016;-10432197068.0;-10412868819.0;-128271.0;-4799.994281245823;-4809.718598044558;2.1702849356506704;-35.55703422875922;-37166.666666666664;37131.1096324379
0.21200000000000016;-10451397290.0;-10432099012.0;-98056.0;-4800.055405261569;-4807.548313108908;1.6706718630848627;-15.281003936479465;-36666.666666666664;36651.38566273019
0.21600000000000016;-10470597526.0;-10451322522.0;-74768.0;-4800.058739863604;-4805.877641245823;1.3361559842542192;-0.8336505088664126;-36083.333333333336;36082.49968282447
0.22000000000000017;-10489797675.0;-10470540687.0;-56839.0;-4800.037056686871;-4804.541485261569;1.0724053979638484;5.420794183237376;-35333.333333333336;35338.75412751657
0.22400000000000017;-10508997731.0;-10489754563.0;-43112.0;-4800.01359920323;-4803.469079863605;0.8453031767330685;5.864370910330763;-34333.333333333336;34339.19770424366
0.22800000000000017;-10528197726.0;-10508965058.0;-32673.0;-4799.998497867611;-4802.623776686872;0.6497974836411231;3.7753339047412737;-33083.333333333336;33087.10866723808
0.23200000000000018;-10547397697.0;-10528172953.0;-24773.0;-4799.992594281675;-4801.973979203231;0.48910133561912517;1.4758964839529654;-31500.0;31501.475896483953
0.23600000000000018;-10566597668.0;-10547378892.0;-18805.0;-4799.992655209185;-4801.484877867611;0.3639835859357845;-0.015231877341648214;-29500.0;29499.98476812266
0.24000000000000019;-10585797650.0;-10566583375.0;-14293.0;-4799.9950693071705;-4801.120894281676;0.27065907249107113;-0.6035244964550657;-27250.0;27249.396475503545
0.2440000000000002;-10604997640.0;-10585786775.0;-10875.0;-4799.997479163042;-4800.850235209185;0.202665902013905;-0.6024639678798849;-24750.0;24749.39753603212
0.2480000000000002;-10624197637.0;-10604989365.0;-8275.0;-4799.998946129938;-4800.647569307171;0.15359014412842953;-0.3667417240649229;-22083.333333333332;22082.966591609267
0.25200000000000017;-10643397636.0;-10624191340.0;-6297.0;-4799.9994633181;-4800.493979163042;0.11721303310423536;-0.1292970405302185;-19333.333333333332;19333.204036292802
0.25600000000000017;-10662597634.0;-10643392847.0;-4789.0;-4799.9993980105555;-4800.376766129938;0.08996281183772226;0.016326886225215276;-16500.0;16500.016326886223
0.2600000000000002;-10681797632.0;-10662593994.0;-3640.0;-4799.999123411742;-4800.2868033181;0.06900530754501233;0.06864970328024356;-13750.0;13750.06864970328
0.2640000000000002;-10700997628.0;-10681794865.0;-2767.0;-4799.998869564142;-4800.217798010555;0.052654598813205666;0.06346190002659569;-11083.333333333334;11083.39679523336
0.2680000000000002;-10720197624.0;-10700995525.0;-2103.0;-4799.998719794041;-4800.165143411742;0.04009384759956447;0.03744252535398118;-8583.333333333334;8583.370775858688
0.2720000000000002;-10739397620.0;-10720196025.0;-1599.0;-4799.998666535345;-4800.1250495641425;0.03038977010146482;0.013314673878994654;-6416.666666666667;6416.679981340546
0.2760000000000002;-10758597615.0;-10739396403.0;-1217.0;-4799.998669027175;-4800.094659794041;0.022973258695856202;-0.0006229574864846654;-4500.0;4499.9993770425135
0.2800000000000002;-10777797611.0;-10758596689.0;-926.0;-4799.998689237088;-4800.071686535345;0.017457508170082292;-0.005052478172729025;-2916.6666666666665;2916.661614188494
0.2840000000000002;-10796997607.0;-10777796905.0;-706.0;-4799.998705089471;-4800.054229027175;0.013179790086724097;-0.003963095650760806;-1666.6666666666667;1666.662703571016
0.2880000000000002;-10816197602.0;-10796997069.0;-538.0;-4799.9987094920125;-4800.041049237088;0.010064147617413255;-0.0011006354725395795;-750.0;749.9988993645275
0.2920000000000002;-10835397598.0;-10816197192.0;-410.0;-4799.998704088237;-4800.030985089471;0.007675597458728589;0.0013509438758774195;-83.33333333333333;83.3346842772092
0.2960000000000002;-10854597594.0;-10835397285.0;-313.0;-4799.998693364363;-4800.023309492012;0.00582540377490659;0.00268096846411936;416.6666666666667;-416.66398569820257
0.3000000000000002;-10873797589.0;-10854597354.0;-240.0;-4799.998681185671;-4800.017484088237;0.004390723874166724;0.0030446731216215994;666.6666666666666;-666.663621993545
0.3040000000000002;-10892997585.0;-10873797406.0;-183.0;-4799.998669660232;-4800.013093364363;0.003432178692492016;0.0028813597054977436;750.0;-749.9971186402945
0.3080000000000002;-10912197581.0;-10892997444.0;-141.0;-4799.998659367437;-4800.009661185671;0.0025315254388260655;0.0025731987989274785;666.6666666666666;-666.6640934678677
0.3120000000000002;-10931397576.0;-10912197472.0;-109.0;-4799.998650064333;-4800.007129660232;0.0019302927948956494;0.0023257759949046886;583.3333333333334;-583.3310075573385
0.3160000000000002;-10950597572.0;-10931397492.0;-84.0;-4799.998641256364;-4800.005199367437;0.001509303104285209;0.002201992174377665;416.6666666666667;-416.6644646744923
0.32000000000000023;-10969797567.0;-10950597506.0;-66.0;-4799.998632564388;-4800.003690064333;0.0010888079686992569;0.0021729940726800123;416.6666666666667;-416.664493672594
0.32400000000000023;-10988997562.0;-10969797516.0;-51.0;-4799.998623784695;-4800.002601256364;0.0009086919762921752;0.002194923126808135;250.0;-249.9978050768732
0.32800000000000024;-11008197558.0;-10988997522.0;-40.0;-4799.998614869966;-4800.001692564388;0.0006687796922051348;0.0022286822058958933;250.0;-249.9977713177941
0.33200000000000024;-11027397553.0;-11008197526.0;-32.0;-4799.998605857134;-4800.0010237846955;0.0004889147294306895;0.002253208094771253;83.33333333333333;-83.33108012523856
0.33600000000000024;-11046597548.0;-11027397528.0;-25.0;-4799.998596799289;-4800.000534869966;0.0004290128317734343;0.0022644612727162894;83.33333333333333;-83.33106887206061
0.34000000000000025;-11065797544.0;-11046597528.0;-20.0;-4799.998587734519;-4800.000105857134;0.00030905784569768;0.002266192495881114;83.33333333333333;-83.33106714083745
0.34400000000000025;-11084997539.0;-11065797527.0;-17.0;-4799.998578674943;-4799.999796799289;0.0001890647699838155;0.002264893964820658;83.33333333333333;-83.33106843936851
0.34800000000000025;-11104197534.0;-11084997525.0;-14.0;-4799.998569634411;-4799.999607734519;0.00018905957585957367;0.002260132987430552;83.33333333333333;-83.3310732003459
0.35200000000000026;-11123397529.0;-11104197522.0;-12.0;-4799.998560603111;-4799.999418674943;0.00012904053164675133;0.0022578249172511278;0.0;0.0022578249172511278
0.35600000000000026;-11142597524.0;-11123397519.0;-10.0;-4799.998551572967;-4799.999289634411;0.00012903129936603364;0.002257536152683315;0.0;0.002257536152683315
0.36000000000000026;-11161797519.0;-11142597515.0;-9.0;-4799.998542548593;-4799.999160603112;6.903014491399517e-05;0.0022560934667126276;0.0;0.0022560934667126276
0.36400000000000027;-11180997514.0;-11161797511.0;-8.0;-4799.998533518448;-4799.999091572967;6.902437417011242e-05;0.002257536152683315;0.0;0.002257536152683315
0.36800000000000027;-11200197509.0;-11180997507.0;-7.0;-4799.998524491765;-4799.999022548593;6.903014400450047e-05;0.002256670768474578;0.0;0.002256670768474578
0.3720000000000003;-11219397504.0;-11200197502.0;-7.0;-4799.998515464506;-4799.998953518449;9.026683073898312e-06;0.0022568146960111335;0.0;0.0022568146960111335
0.3760000000000003;-11238597499.0;-11219397497.0;-7.0;-4799.998506433784;-4799.9989444917655;9.027258784044534e-06;0.0022576805349672213;0.0;0.0022576805349672213
0.3800000000000003;-11257797494.0;-11238597492.0;-7.0;-4799.998497407679;-4799.998935464507;9.030722139868885e-06;0.0022565263861906715;0.0;0.0022565263861906715
0.3840000000000003;-11276997489.0;-11257797487.0;-7.0;-4799.998488380418;-4799.998926433785;9.026105544762686e-06;0.0022568151507584844;0.0;0.0022568151507584844
0.3880000000000003;-11296197484.0;-11276997482.0;-7.0;-4799.998479360084;-4799.998917407679;9.027260603033938e-06;0.0022550834728463087;0.0;0.0022550834728463087
0.3920000000000003;-11315397479.0;-11296197477.0;-7.0;-4799.998470334556;-4799.9989083804185;9.020333891385235e-06;0.002256382003906765;0.0;0.002256382003906765
0.3960000000000003;-11334597474.0;-11315397472.0;-7.0;-4799.998461313645;-4799.998899360085;9.02552801562706e-06;0.002255227855130215;0.0;0.002255227855130215
0.4000000000000003;-11353797468.0;-11334597467.0;-7.0;-4799.9984522967725;-4799.998890334557;9.02091142052086e-06;0.0022542180886375718;0.0;0.0022542180886375718
0.4040000000000003;-11372997463.0;-11353797462.0;-6.0;-4799.99844327586;-4799.998881313645;6.90168726578122e-05;0.0022552280825038906;0.0;0.0022552280825038906
0.4080000000000003;-11392197458.0;-11372997457.0;-6.0;-4799.998434263028;-4799.9988122967725;9.020912330015562e-06;0.002253208094771253;0.0;0.002253208094771253
0.4120000000000003;-11411397452.0;-11392197452.0;-6.0;-4799.998425244425;-4799.99880327586;9.012832379085012e-06;0.0022546507807419403;0.0;0.0022546507807419403
0.4160000000000003;-11430597447.0;-11411397447.0;-5.0;-4799.9984162367855;-4799.998794263028;6.901860342622967e-05;0.002251909791084472;0.0;0.002251909791084472
0.4200000000000003;-11449797441.0;-11430597441.0;-6.0;-4799.998407228571;-4799.998725244424;-5.0992361138924025e-05;0.0022520537186210277;0.0;0.0022520537186210277
0.4240000000000003;-11468997436.0;-11449797436.0;-5.0;-4799.998398217469;-4799.9987762367855;6.900821517774602e-05;0.0022527754026668845;0.0;0.0022527754026668845
0.4280000000000003;-11488197430.0;-11468997430.0;-6.0;-4799.998389214447;-4799.99870722857;-5.0988898692594375e-05;0.002250755414934247;0.0;0.002250755414934247
0.43200000000000033;-11507395068.0;-11488197425.0;-5.0;-4799.409281679062;-4799.998758217469;6.90030219629989e-05;147.27688384641624;0.0;147.27688384641624
0.43600000000000033;-11526583313.0;-11507397419.0;2351.0;-4797.061015517967;-4799.998689214447;0.7304675353852872;587.0665402737814;83.33333333333333;503.73320694044804
0.44000000000000034;-11545753121.0;-11526594491.0;11178.0;-4792.451721233035;-4799.268221679062;2.8778861610953754;1152.3235712329551;83.33333333333333;1068.990237899622
0.44400000000000034;-11564877688.0;-11545780052.0;26931.0;-4781.1413851423595;-4796.390335517966;5.55447428493153;2827.584022668816;83.33333333333333;2744.2506893354825
0.44800000000000034;-11583893313.0;-11564943395.0;65707.0;-4753.9060522371865;-4790.835861233035;13.636896090675691;6808.833226293245;0.0;6808.833226293245
0.45200000000000035;-11602718488.0;-11584052190.0;158877.0;-4706.293503762011;-4777.198965142359;32.82553290517262;11903.137118793893;83.33333333333333;11819.803785460559
0.45600000000000035;-11621267497.0;-11603029683.0;311195.0;-4637.2521881512375;-4744.3734322371865;56.751628475175494;17260.328902693345;166.66666666666666;17093.662236026677
0.46000000000000035;-11639437141.0;-11621780170.0;512673.0;-4542.410667097135;-4687.621803762011;81.12999561077322;23710.38026352562;500.0;23210.38026352562
0.46400000000000036;-11657101406.0;-11640206137.0;768996.0;-4416.0661129729215;-4606.491808151238;110.2209010541028;31586.138531053395;916.6666666666666;30669.471864386727
0.46800000000000036;-11674117064.0;-11658191220.0;1089814.0;-4253.914394533838;-4496.270907097135;145.59363412421317;40537.9296097708;1583.3333333333333;38954.59627643746
0.47200000000000036;-11690329785.0;-11675593929.0;1476865.0;-4053.1798578138273;-4350.677272972922;185.37477843908346;50183.634180002744;2416.6666666666665;47766.96751333607
0.47600000000000037;-11705576515.0;-11692255138.0;1925353.0;-3811.6823367947795;-4165.302494533838;227.64381672001127;60374.38025476194;3583.3333333333335;56791.04692142861
0.48000000000000037;-11719708442.0;-11708005772.0;2429257.0;-3532.9815589495183;-3937.658677813827;271.73176101904755;69675.1944613153;5083.333333333333;64591.86112798197
0.4840000000000004;-11732616013.0;-11722669479.0;2961037.0;-3226.892657307228;-3665.9269167947796;310.6075778452614;76522.22541057256;6916.666666666667;69605.55874390589
0.4880000000000004;-11744209622.0;-11736090756.0;3474743.0;-2898.402132491402;-3355.319338949518;336.9112616422899;82122.63120395652;9000.0;73122.63120395652
0.4920000000000004;-11754422628.0;-11748164388.0;3954766.0;-2553.2513843767297;-3018.4080773072283;357.29190481582646;86287.68702866808;11416.666666666666;74871.0203620014
