Zeit[sec];Sollposition[°];Istposition[°];Positionsschleppfehler[°];Sollgeschwindigkeit[°/s];Istgeschwindigkeit[°/s];Geschwindigkeitsdifferenz[°/s];Sollbeschleunigung[°/s*s];Istbeschleunigung[°/s*s];Beschleunigungsdifferenz[°/s*s]
0.0;-9979199999.0;-9979199995.0;-4.0;0.0;-0.00023999999999999998;0.0;0.0;0.0;0.0
0.004;-9979199999.0;-9979199995.0;-4.0;0.0;-0.00023999999999999998;0.0;0.0;0.0;0.0
0.008;-9979199999.0;-9979199995.0;-4.0;0.0;-0.00023999999999999998;0.0;0.0;0.0;0.0
0.012;-9979199999.0;-9979199995.0;-4.0;0.0;-0.00023999999999999998;0.0;0.0;0.0;0.0
0.016;-9979199999.0;-9979199995.0;-4.0;0.0;-0.00023999999999999998;0.0;0.0;0.0;0.0
0.02;-9979199999.0;-9979199995.0;-4.0;0.0;-0.00023999999999999998;0.0;0.0;0.0;0.0
0.024;-9979199999.0;-9979199995.0;-4.0;0.0;-0.00023999999999999998;0.0;0.0;0.0;0.0
0.028;-9979199999.0;-9979199995.0;-4.0;0.0;-0.00023999999999999998;0.0;0.0;0.0;0.0
0.032;-9979199999.0;-9979199995.0;-4.0;0.0;-0.00023999999999999998;0.0;0.0;0.0;0.0
0.036000000000000004;-9979199999.0;-9979199995.0;-4.0;0.0;-0.00023999999999999998;0.0;0.0;0.0;0.0
0.04000000000000001;-9979199999.0;-9979199995.0;-4.0;0.0;-0.00023999999999999998;0.0;0.0;0.0;0.0
0.04400000000000001;-9979199999.0;-9979199995.0;-4.0;0.0;-0.00023999999999999998;0.0;0.0;0.0;0.0
0.048000000000000015;-9979199999.0;-9979199995.0;-4.0;0.0;-0.00023999999999999998;0.0;0.0;0.0;0.0
0.05200000000000002;-9979199999.0;-9979199995.0;-4.0;0.0;-0.00023999999999999998;0.0;0.0;0.0;0.0
0.05600000000000002;-9979199999.0;-9979199995.0;-4.0;0.0;-0.00023999999999999998;0.0;0.0;0.0;0.0
0.060000000000000026;-9979199999.0;-9979199995.0;-4.0;0.0;-0.00023999999999999998;0.0;0.0;0.0;0.0
0.06400000000000003;-9979199999.0;-9979199995.0;-4.0;-8.656197209923802e-10;-0.00023999999999999998;0.0;-2.1640493024809505e-07;0.0;-2.1640493024809505e-07
0.06800000000000003;-9979257972.0;-9979199995.0;-4.0;-14.493055695671812;-0.00023999999999999998;-8.656197210030973e-10;-3623.263923701548;0.0;-3623.263923701548
0.07200000000000004;-9979341265.0;-9979199995.0;-57977.0;-20.82332694073993;-0.00024000086561972098;-17.971435694806193;-1582.5678112670291;0.0;-1582.5678112670291
0.07600000000000004;-9979470552.0;-9979271881.0;-69384.0;-32.321614964682105;-17.971675695671813;-7.014691245068114;-2874.5720059855444;0.0;-2874.5720059855444
0.08000000000000004;-9979632209.0;-9979371826.0;-98726.0;-40.414312303494334;-24.986366940739927;-13.25880802394218;-2023.1743347030574;-83.33333333333333;-1939.841001369724
0.08400000000000005;-9979806346.0;-9979524806.0;-107403.0;-43.534333174084445;-38.24517496468211;-8.613317338812223;-780.0052176475276;-166.66666666666666;-613.338550980861
0.08800000000000005;-9979984857.0;-9979712239.0;-94107.0;-44.62772861723293;-46.85849230349433;-2.3222608705901138;-273.34886078712196;-333.3333333333333;59.984472546211364
0.09200000000000005;-9980168801.0;-9979908962.0;-75895.0;-45.98588562418661;-49.180753174084444;-0.0006754431484878864;-339.5392517384188;-333.3333333333333;-6.205918405085498
0.09600000000000006;-9980352256.0;-9980105687.0;-63114.0;-45.86387661309449;-49.18142861723293;-0.591297006953674;30.502252773029426;-416.6666666666667;447.1689194396961
0.10000000000000006;-9980516519.0;-9980304777.0;-47479.0;-41.06576917165692;-49.772725624186606;1.0601090110921163;1199.5268603593931;-333.3333333333333;1532.8601936927264
0.10400000000000006;-9980645721.0;-9980499627.0;-16892.0;-32.30047697977502;-48.71261661309449;6.633327441437572;2191.3230479704744;-416.6666666666667;2607.989714637141
0.10800000000000007;-9980728140.0;-9980667944.0;22223.0;-20.604604401693546;-42.07928917165692;11.112192191881896;2923.9681445203682;-333.3333333333333;3257.3014778537017
0.11200000000000007;-9980744830.0;-9980791812.0;63672.0;-4.172659323600483;-30.96709697977502;14.182812578081474;4107.986269523266;-333.3333333333333;4441.319602856599
0.11600000000000008;-9980684968.0;-9980858949.0;114119.0;14.965520852177958;-16.784284401693547;19.458765078093066;4784.54504394461;-166.66666666666666;4951.211710611276
0.12000000000000008;-9980559215.0;-9980848252.0;163284.0;31.438280964539533;2.674480676399517;22.088080175778437;4118.190028090394;-83.33333333333333;4201.523361423727
0.12400000000000008;-9980389937.0;-9980749202.0;189987.0;42.319417766709286;24.762560852177955;18.074940112361574;2720.284200542438;0.0;2720.284200542438
0.12800000000000009;-9980199027.0;-9980577852.0;187915.0;47.72758121946775;42.83750096453953;10.756816802169752;1352.0408631896164;166.66666666666666;1185.3741965229497
0.1320000000000001;-9980003779.0;-9980363475.0;164448.0;48.81196566865756;53.59431776670928;4.000143452758465;271.0961122974513;250.0;21.09611229745134
0.1360000000000001;-9979817158.0;-9980133098.0;129319.0;46.65528980931256;57.594461219467746;-1.0233555508101873;-539.1689648362483;416.6666666666667;-955.835631502915
0.1400000000000001;-9979645330.0;-9979906814.0;89656.0;42.9570514058149;56.57110566865756;-4.536455859344997;-924.5596008744154;416.6666666666667;-1341.226267541082
0.1440000000000001;-9979493734.0;-9979698676.0;53346.0;37.898971814760635;52.03464980931256;-5.876838403497658;-1264.5198977635666;500.0;-1764.5198977635666
0.1480000000000001;-9979375055.0;-9979514045.0;20311.0;29.66957584307991;46.157811405814904;-7.040179591054269;-2057.348992920181;416.6666666666667;-2474.0156595868475
0.1520000000000001;-9979298457.0;-9979357575.0;-17480.0;19.14953062187199;39.117631814760635;-10.496855971680723;-2630.011305301981;333.3333333333333;-2963.344638635314
0.1560000000000001;-9979260047.0;-9979243092.0;-55365.0;9.602638745793815;28.62077584307991;-12.793145221207922;-2386.7229690195436;250.0;-2636.7229690195436
0.16000000000000011;-9979199999.0;-9979179782.0;-80265.0;15.011819095418408;15.82763062187199;-11.040891876078174;1352.2950874061482;166.66666666666666;1185.6284207394817
0.16400000000000012;-9979199999.0;-9979160636.0;-39363.0;0.0;4.786738745793816;7.863300349624593;-3752.954773854602;83.33333333333333;-3836.2881071879356
0.16800000000000012;-9979256971.0;-9979110036.0;-89963.0;-14.24286185678534;12.650039095418409;-18.047819095418408;-3560.715464196335;0.0;-3560.715464196335
0.17200000000000013;-9979262963.0;-9979131627.0;-125344.0;-1.4980068294472446;-5.397779999999999;-16.365721856785342;3186.213756834524;0.0;3186.213756834524
0.17600000000000013;-9979266482.0;-9979218681.0;-44282.0;-0.8797075674011882;-21.76350185678534;17.608575027338095;154.57481551151412;0.0;154.57481551151412
0.18000000000000013;-9979267760.0;-9979235300.0;-31182.0;-0.31945675086058467;-4.154926829447245;1.4042992620460568;140.06270413515088;0.0;140.06270413515088
0.18400000000000014;-9979267729.0;-9979246302.0;-21458.0;0.007535906107677417;-2.750627567401188;1.1436908165406034;81.74816424206553;0.0;81.74816424206553
0.18800000000000014;-9979267248.0;-9979252729.0;-15000.0;0.12042716318698772;-1.6069367508605845;0.714472656968262;28.222814269827577;0.0;28.222814269827577
0.19200000000000014;-9979266815.0;-9979256298.0;-10950.0;0.10807216973532449;-0.8924640938923225;0.35589125707931035;-3.0887483629158075;0.0;-3.0887483629158075
0.19600000000000015;-9979266603.0;-9979258444.0;-8371.0;0.05309742877125104;-0.5365728368130122;0.14238500654833675;-13.743685241018364;0.0;-13.743685241018364
0.20000000000000015;-9979266587.0;-9979260020.0;-6583.0;0.004048339255874281;-0.3941878302646754;0.05230525903592653;-12.26227237884419;0.0;-12.26227237884419
0.20400000000000015;-9979266677.0;-9979261387.0;-5200.0;-0.02263148131561293;-0.3418825712287489;0.033930910484623156;-6.669955142871803;0.0;-6.669955142871803
0.20800000000000016;-9979266795.0;-9979262618.0;-4059.0;-0.02946301072728592;-0.3079516607441257;0.04178017942851281;-1.7078823529182476;0.0;-1.7078823529182476
0.21200000000000016;-9979266897.0;-9979263682.0;-3113.0;-0.0254010336327074;-0.2661714813156129;0.04992847058832703;1.01549427364463;166.66666666666666;-165.65117239302202
0.21600000000000016;-9979266970.0;-9979264546.0;-2351.0;-0.01838519243048202;-0.21624301072728588;0.04978197709457849;1.753960300556345;250.0;-248.24603969944366
0.22000000000000017;-9979267022.0;-9979265211.0;-1759.0;-0.012798253073431229;-0.1664610336327074;0.04253584120222538;1.3967348392626977;416.6666666666667;-415.269931827404
0.22400000000000017;-9979267061.0;-9979265706.0;-1316.0;-0.009861000496770115;-0.12392519243048201;0.0321669393570508;0.7343131441652786;333.3333333333333;-332.599020189168
0.22800000000000017;-9979267097.0;-9979266073.0;-988.0;-0.009037759786078079;-0.09175825307343122;0.022617252576661112;0.20581017767300896;416.6666666666667;-416.46085648899367
0.23200000000000018;-9979267134.0;-9979266349.0;-748.0;-0.0092919905668941;-0.0691410004967701;0.015223240710692032;-0.06355769520400514;333.3333333333333;-333.3968910285373
0.23600000000000018;-9979267174.0;-9979266564.0;-570.0;-0.00978839173749346;-0.05391775978607807;0.010425769219183978;-0.12410029264984038;333.3333333333333;-333.45743362598313
0.24000000000000019;-9979267214.0;-9979266737.0;-437.0;-0.010097407590451088;-0.043491990566894095;0.0074835988294006395;-0.07725396323940686;250.0;-250.0772539632394
0.2440000000000002;-9979267254.0;-9979266881.0;-333.0;-0.010119560530350725;-0.036008391737493456;0.005930984147042372;-0.005538234974909132;250.0;-250.00553823497492
0.2480000000000002;-9979267294.0;-9979267001.0;-253.0;-0.009926561380278448;-0.030077407590451084;0.0047778470601003604;0.048249787518069194;166.66666666666666;-166.61841687914858
0.25200000000000017;-9979267333.0;-9979267102.0;-192.0;-0.009630867991906709;-0.025299560530350724;0.003852999150072277;0.07392334709293473;0.0;0.07392334709293473
0.25600000000000017;-9979267370.0;-9979267187.0;-146.0;-0.009317468929221882;-0.021446561380278447;0.0030556933883717392;0.07834976567120669;-166.66666666666666;166.74501643233788
0.2600000000000002;-9979267406.0;-9979267260.0;-110.0;-0.009027224905533695;-0.018390867991906708;0.002473399062684827;0.07256100592204677;-333.3333333333333;333.4058943392554
0.2640000000000002;-9979267441.0;-9979267323.0;-83.0;-0.008767385486005459;-0.01591746892922188;0.0019102440236881853;0.06495985488205909;-416.6666666666667;416.7316265215487
0.2680000000000002;-9979267475.0;-9979267379.0;-62.0;-0.008528904078933083;-0.014007224905533695;0.001519839419528237;0.05962035176809406;-500.0;500.0596203517681
0.2720000000000002;-9979267508.0;-9979267428.0;-47.0;-0.00829973298903979;-0.012487385486005458;0.001138481407072376;0.05729277247332318;-416.6666666666667;416.72395943914
0.2760000000000002;-9979267541.0;-9979267473.0;-35.0;-0.008071322490341344;-0.011348904078933082;0.0009491710898932929;0.057102624674611364;-416.6666666666667;416.7237692913413
0.2800000000000002;-9979267572.0;-9979267514.0;-27.0;-0.00783986558730482;-0.01039973298903979;0.000708410498698445;0.05786422575913093;-333.3333333333333;333.39119755909246
0.2840000000000002;-9979267602.0;-9979267552.0;-20.0;-0.0076049392804265585;-0.009691322490341344;0.0006514569030365239;0.05873157671956557;-250.0;250.05873157671957
0.2880000000000002;-9979267632.0;-9979267588.0;-14.0;-0.007367646946310918;-0.00903986558730482;0.0005949263068782615;0.05932308352891015;-83.33333333333333;83.39265641686224
0.2920000000000002;-9979267660.0;-9979267621.0;-11.0;-0.007129275184403199;-0.008444939280426559;0.00041729233411564107;0.059592940476929646;0.0;0.059592940476929646
0.2960000000000002;-9979267688.0;-9979267653.0;-7.0;-0.006890680958227186;-0.008027646946310918;0.00047837176190771834;0.05964855654400341;-83.33333333333333;83.39298188987733
0.3000000000000002;-9979267715.0;-9979267683.0;-5.0;-0.006652220326028111;-0.0075492751844031996;0.00035859422617601396;0.05961515804976864;-83.33333333333333;83.3929484913831
0.3040000000000002;-9979267740.0;-9979267711.0;-4.0;-0.006413906849181607;-0.007190680958227186;0.00029846063219907473;0.05957836921162613;0.0;0.05957836921162613
0.3080000000000002;-9979267765.0;-9979267738.0;-2.0;-0.0061756150128281255;-0.006892220326028111;0.000358313476846504;0.05957295908837028;83.33333333333333;-83.27376037424496
0.3120000000000002;-9979267789.0;-9979267764.0;-1.0;-0.005937213531309986;-0.006533906849181607;0.00029829183635348127;0.05960037037953492;83.33333333333333;-83.27373296295379
0.3160000000000002;-9979267812.0;-9979267788.0;-1.0;-0.0056986207478335075;-0.006235615012828126;0.00023840148151813966;0.05964819586911957;0.0;0.05964819586911957
0.32000000000000023;-9979267833.0;-9979267811.0;-1.0;-0.005459808674027711;-0.005997213531309986;0.00023859278347647828;0.05970301845144906;0.0;0.05970301845144906
0.32400000000000023;-9979267854.0;-9979267834.0;1.0;-0.005220782215071015;-0.005758620747833508;0.00035881207380579656;0.05975661473917406;0.0;0.05975661473917406
0.32800000000000024;-9979267874.0;-9979267855.0;1.0;-0.004981559837517467;-0.005399808674027711;0.00023902645895669625;0.05980559438838705;0.0;0.05980559438838705
0.33200000000000024;-9979267893.0;-9979267875.0;1.0;-0.004742158853761489;-0.005160782215071015;0.0002392223775535482;0.05985024593899439;0.0;0.05985024593899439
0.33600000000000024;-9979267911.0;-9979267894.0;1.0;-0.004502591382479173;-0.004921559837517467;0.00023940098375597758;0.059891867820579134;0.0;0.059891867820579134
0.34000000000000025;-9979267928.0;-9979267912.0;1.0;-0.004262862617388845;-0.004682158853761489;0.00023956747128231655;0.059932191272581925;0.0;0.059932191272581925
0.34400000000000025;-9979267944.0;-9979267929.0;1.0;-0.004022977175129018;-0.0044425913824791725;0.00023972876509032771;0.059971360564956826;0.0;0.059971360564956826
0.34800000000000025;-9979267959.0;-9979267945.0;1.0;-0.003782934478619877;-0.004202862617388845;0.0002398854422598273;0.06001067412728513;0.0;0.06001067412728513
0.35200000000000026;-9979267974.0;-9979267960.0;1.0;-0.00354273856742012;-0.0039629771751290175;0.0002400426965091405;0.060048977799939264;0.0;0.060048977799939264
0.35600000000000026;-9979267987.0;-9979267974.0;0.0;-0.003302390884229283;-0.003722934478619877;0.0001801959111997569;0.060086920797709234;0.0;0.060086920797709234
0.36000000000000026;-9979267999.0;-9979267988.0;1.0;-0.003061895180066156;-0.00354273856742012;0.0003003476831908371;0.06012392604078185;0.0;0.06012392604078185
0.36400000000000027;-9979268010.0;-9979268000.0;1.0;-0.002821254628869716;-0.003242390884229283;0.0002404957041631274;0.06016013779910998;0.0;0.06016013779910998
0.36800000000000027;-9979268021.0;-9979268012.0;2.0;-0.002580472404578941;-0.0030018951800661556;0.00030064055119643964;0.06019555607269372;0.0;0.06019555607269372
0.3720000000000003;-9979268030.0;-9979268022.0;1.0;-0.0023395531238323414;-0.002701254628869716;0.00018078222429077518;0.0602298201866499;0.0;0.0602298201866499
0.3760000000000003;-9979268038.0;-9979268032.0;2.0;-0.0020984999605688955;-0.002520472404578941;0.00030091928074659933;0.06026329081586148;0.0;0.06026329081586148
0.3800000000000003;-9979268046.0;-9979268040.0;2.0;-0.0018573169543473003;-0.0022195531238323415;0.00024105316326344592;0.060295751555398784;0.0;0.060295751555398784
0.3840000000000003;-9979268052.0;-9979268047.0;1.0;-0.0016160055478670915;-0.0019784999605688956;0.0001811830062215952;0.06032785162005219;0.0;0.06032785162005219
0.3880000000000003;-9979268058.0;-9979268054.0;2.0;-0.001374571511926409;-0.0017973169543473004;0.00030131140648020894;0.06035850898517063;0.0;0.06035850898517063
0.3920000000000003;-9979268062.0;-9979268059.0;1.0;-0.0011330174433844154;-0.0014960055478670914;0.00018143403594068235;0.06038851713549841;0.0;0.06038851713549841
0.3960000000000003;-9979268066.0;-9979268064.0;2.0;-0.0008913470932599018;-0.001314571511926409;0.0003015540685419938;0.06041758753112841;0.0;0.06041758753112841
0.4000000000000003;-9979268069.0;-9979268068.0;2.0;-0.000649563058412031;-0.0010130174433844153;0.0002416703501245135;0.060446008711967696;0.0;0.060446008711967696
0.4040000000000003;-9979268070.0;-9979268071.0;2.0;-0.00040766908985959436;-0.0007713470932599018;0.00024178403484787078;0.06047349213810916;0.0;0.06047349213810916
0.4080000000000003;-9979268054.0;-9979268073.0;3.0;0.004050233520363719;-0.000529563058412031;0.0003018939685524366;1.1144756525558284;0.0;1.1144756525558284
0.4120000000000003;-9979267976.0;-9979268073.0;19.0;0.019532657644089613;-0.00022766908985959438;0.005417902610223314;3.8706060309314734;0.0;3.8706060309314734
0.4160000000000003;-9979267800.0;-9979268053.0;77.0;0.04395496852890014;0.00519023352036372;0.018962424123725893;6.105577721202632;0.0;6.105577721202632
0.4200000000000003;-9979263336.0;-9979267957.0;157.0;1.116000299444182;0.024152657644089612;0.02922231088481053;268.0113327288205;0.0;268.0113327288205
0.4240000000000003;-9979199999.0;-9979267744.0;4408.0;15.834120343544994;0.05337496852890014;1.3271053309152818;3679.530011025203;0.0;3679.530011025203
0.4280000000000003;-9979199999.0;-9979262223.0;62224.0;0.0;1.380480299444182;18.18708004410081;-3958.5300858862483;0.0;-3958.5300858862483
0.43200000000000033;-9979129255.0;-9979183953.0;-16046.0;17.686080087661317;19.567560343544994;-20.530320343544993;4421.520021915329;0.0;4421.520021915329
0.43600000000000033;-9979030141.0;-9979187804.0;58549.0;24.778626424542942;-0.96276;22.161780087661317;1773.1365842204063;0.0;1773.1365842204063
0.44000000000000034;-9978903753.0;-9979103008.0;72867.0;31.59693407638568;21.199020087661317;7.951626336881624;1704.5769129606842;83.33333333333333;1621.243579627351
0.44400000000000034;-9978756464.0;-9978986406.0;82653.0;36.82234416888657;29.15064642454294;7.405467651842741;1306.3525231252236;166.66666666666666;1139.6858564585568
0.44800000000000034;-9978596756.0;-9978840182.0;83718.0;39.92700313991481;36.55611407638568;5.289310092500891;776.164742757059;250.0;526.164742757059
0.45200000000000035;-9978431772.0;-9978672801.0;76045.0;41.24581678125308;41.845424168886574;2.6442789710282355;329.7034103345684;250.0;79.7034103345684
0.45600000000000035;-9978270107.0;-9978494843.0;63071.0;40.416389247792615;44.48970313991481;0.5403736413382774;-207.35688336511691;333.3333333333333;-540.6902166984503
0.46000000000000035;-9978124670.0;-9978314723.0;44616.0;36.35914681003028;45.030076781253086;-1.9367275334604699;-1014.3106094405833;333.3333333333333;-1347.6439427739167
0.46400000000000036;-9978004601.0;-9978142350.0;17680.0;30.01723557224588;43.09334924779262;-5.673402437762334;-1585.4778094461003;333.3333333333333;-1918.8111427794338
0.46800000000000036;-9977912162.0;-9977992671.0;-11930.0;23.10979082456358;37.41994681003028;-8.118511237784404;-1726.8611869205754;250.0;-1976.8611869205754
0.47200000000000036;-9977848361.0;-9977875466.0;-36696.0;15.950361399769413;29.30143557224588;-8.3934047476823;-1789.8573561985413;250.0;-2039.8573561985413
0.47600000000000037;-9977811534.0;-9977791834.0;-56527.0;9.20654757534885;20.90803082456358;-8.349289424794165;-1685.9534561051407;250.0;-1935.9534561051407
0.48000000000000037;-9977796518.0;-9977741600.0;-69934.0;3.7541651619756187;12.558741399769414;-7.548233824420564;-1363.0956033433079;166.66666666666666;-1529.7622700099744
0.4840000000000004;-9977798636.0;-9977721558.0;-74960.0;-0.5294803241578666;5.01050757534885;-5.753942413373231;-1070.9113715333713;166.66666666666666;-1237.578038200038
0.4880000000000004;-9977813910.0;-9977724531.0;-74105.0;-3.818495559548525;-0.7434348380243807;-4.232345486133486;-822.2538088476646;83.33333333333333;-905.5871421809978
0.4920000000000004;-9977843594.0;-9977744434.0;-69476.0;-7.4209907258381245;-4.975780324157866;-3.0112752353906584;-900.6237915723999;0.0;-900.6237915723999
0.4960000000000004;-9977898355.0;-9977776382.0;-67212.0;-13.69028795811328;-7.987055559548525;-3.4666551662896;-1567.3243080687892;-83.33333333333333;-1483.9909747354557
0.5000000000000003;-9977987036.0;-9977822196.0;-76159.0;-22.17038185597712;-11.453710725838125;-6.806117232275156;-2120.0234744659597;-83.33333333333333;-2036.6901411326262
0.5040000000000003;-9978107635.0;-9977895235.0;-91801.0;-30.1497035233528;-18.25982795811328;-9.418613897863839;-1994.8304168439206;-83.33333333333333;-1911.4970835105873
