Zeit[sec];Sollposition[°];Istposition[°];Positionsschleppfehler[°];Sollgeschwindigkeit[°/s];Istgeschwindigkeit[°/s];Geschwindigkeitsdifferenz[°/s];Sollbeschleunigung[°/s*s];Istbeschleunigung[°/s*s];Beschleunigungsdifferenz[°/s*s]
0.0;0.0;4.0;-4.0;-0.0;-0.00023999999999999998;0.0;0.0;0.0;0.0
0.004;0.0;4.0;-4.0;-0.0;-0.00023999999999999998;0.0;0.0;0.0;0.0
0.008;0.0;4.0;-4.0;-0.0;-0.00023999999999999998;0.0;0.0;0.0;0.0
0.012;0.0;4.0;-4.0;-0.0;-0.00023999999999999998;0.0;0.0;0.0;0.0
0.016;0.0;4.0;-4.0;-0.0;-0.00023999999999999998;0.0;0.0;0.0;0.0
0.02;0.0;4.0;-4.0;-0.0;-0.00023999999999999998;0.0;0.0;0.0;0.0
0.024;0.0;4.0;-4.0;-0.0;-0.00023999999999999998;0.0;0.0;0.0;0.0
0.028;0.0;4.0;-4.0;-0.0;-0.00023999999999999998;0.0;0.0;0.0;0.0
0.032;0.0;4.0;-4.0;-0.0;-0.00023999999999999998;0.0;0.0;0.0;0.0
0.036000000000000004;0.0;4.0;-4.0;-0.0;-0.00023999999999999998;0.0;0.0;0.0;0.0
0.04000000000000001;0.0;4.0;-4.0;-0.0;-0.00023999999999999998;0.0;0.0;0.0;0.0
0.04400000000000001;0.0;4.0;-4.0;-0.0;-0.00023999999999999998;0.0;0.0;0.0;0.0
0.048000000000000015;-302.0;4.0;-4.0;-0.07561853438069406;-0.00023999999999999998;0.0;-18.904633595173514;0.0;-18.904633595173514
0.05200000000000002;-3316.0;4.0;-306.0;-0.7535895769770989;-0.00023999999999999998;-0.09373853438069406;-169.49276064910123;0.0;-169.49276064910123
0.05600000000000002;-18133.0;-371.0;-2945.0;-3.7040455827097065;-0.09397853438069406;-0.8363110425964049;-737.6140014331519;0.0;-737.6140014331519
0.060000000000000026;-67105.0;-4092.0;-14041.0;-12.243133630337331;-0.9302895769770989;-3.616216005732607;-2134.7720119069063;0.0;-2134.7720119069063
0.06400000000000003;-191340.0;-22278.0;-44827.0;-31.058794746498425;-4.546505582709706;-10.386248047627625;-4703.915279040273;0.0;-4703.915279040273
0.06800000000000003;-451176.0;-82009.0;-109331.0;-64.95903341951087;-14.93275363033733;-22.68590111616109;-8475.059668253112;0.0;-8475.059668253112
0.07200000000000004;-920482.0;-232483.0;-218693.0;-117.32635715075163;-37.61865474649842;-40.46195867301245;-13091.83093281019;-83.33333333333333;-13008.497599476856
0.07600000000000004;-1679288.0;-544805.0;-375677.0;-189.70163059286543;-78.08061341951087;-61.78636373124077;-18093.81836052845;-333.3333333333333;-17760.485027195115
0.08000000000000004;-2810054.0;-1104272.0;-575016.0;-282.6913706499008;-139.86697715075164;-84.33561344211378;-23247.43501425885;-666.6666666666666;-22580.76834759218
0.08400000000000005;-4396717.0;-2001082.0;-808972.0;-396.66576995527254;-224.20259059286542;-107.0271000570354;-28493.59982634293;-1166.6666666666667;-27326.933159676264
0.08800000000000005;-6522060.0;-3326000.0;-1070717.0;-531.335625338259;-331.2296906499008;-129.67909930537172;-33667.46384574661;-1750.0;-31917.46384574661
0.09200000000000005;-9262413.0;-5169635.0;-1352425.0;-685.0881875066156;-460.90878995527254;-151.5723353829864;-38438.140542089146;-2666.6666666666665;-35771.473875422475
0.09600000000000006;-12682766.0;-7619559.0;-1642854.0;-855.0883975412592;-612.481125338259;-171.1783021683566;-42500.0525086609;-3666.6666666666665;-38833.38584199423
0.10000000000000006;-16833801.0;-10754196.0;-1928570.0;-1037.758664484383;-783.6594275066155;-187.14317003464362;-45667.56673578095;-4916.666666666667;-40750.90006911429
0.10400000000000006;-21750237.0;-14637406.0;-2196395.0;-1229.1089990906287;-970.8025975412592;-198.73976694312375;-47837.58365156143;-6166.666666666667;-41670.916984894764
0.10800000000000007;-27451327.0;-19315575.0;-2434662.0;-1425.2722269034346;-1169.542364484383;-205.64635460624572;-49040.80695320147;-7583.333333333333;-41457.473619868135
0.11200000000000007;-33944290.0;-24816329.0;-2634998.0;-1623.2406902557723;-1375.1887190906286;-208.1833878128059;-49492.11583808443;-9083.333333333334;-40408.7825047511
0.11600000000000008;-41229238.0;-31149817.0;-2794473.0;-1821.2370179907919;-1583.3721069034345;-207.5369633523378;-49499.0819337549;-10750.0;-38749.0819337549
0.12000000000000008;-49303490.0;-38313453.0;-2915785.0;-2018.5628724143025;-1790.9090702557723;-205.2750477350196;-49331.463605877674;-12416.666666666666;-36914.79693921101
0.12400000000000008;-58164255.0;-46298189.0;-3005301.0;-2215.1911442701303;-1996.184117990792;-202.69681442351066;-49157.067963956935;-14000.0;-35157.067963956935
0.12800000000000009;-67809728.0;-55093712.0;-3070543.0;-2411.368149727911;-2198.8809324143026;-200.54279185582755;-49044.25136444513;-15583.333333333334;-33460.918031111796
0.1320000000000001;-78238773.0;-64691406.0;-3118322.0;-2607.2610313509795;-2399.42372427013;-199.04374545778046;-48973.22040576716;-17166.666666666668;-31806.5537391005
0.1360000000000001;-89448854.0;-75085275.0;-3153498.0;-2802.520233385051;-2598.4674697279106;-198.00344162306874;-48814.80050851792;-18750.0;-30064.800508517917
0.1400000000000001;-101432720.0;-86271158.0;-3177696.0;-2995.9664326399966;-2796.4709113509793;-196.71108203407175;-48361.54981373636;-20250.0;-28111.54981373636
0.1440000000000001;-114175232.0;-98243885.0;-3188835.0;-3185.627648163648;-2993.181993385051;-194.1145392549456;-47415.303880912805;-21833.333333333332;-25581.97054757947
0.1480000000000001;-127649947.0;-110993071.0;-3182161.0;-3368.678779276533;-3187.2965326399967;-189.26077552365086;-45762.78277822132;-23416.666666666668;-22346.116111554653
0.1520000000000001;-141815042.0;-124499300.0;-3150647.0;-3541.2733893721224;-3376.5573081636476;-181.16029111288572;-43148.65252389734;-24916.666666666668;-18231.985857230673
0.1560000000000001;-156611283.0;-138730170.0;-3084872.0;-3699.06014666035;-3557.7175992765333;-168.6481100955889;-39446.68932205684;-26333.333333333332;-13113.35598872351
0.16000000000000011;-171964338.0;-153635632.0;-2975651.0;-3838.2636992999182;-3726.365709372122;-151.23349728822768;-34800.888159892114;-27750.0;-7050.888159892111
0.16400000000000012;-187789904.0;-169146028.0;-2818310.0;-3956.3912973417696;-3877.59920666035;-129.76309263956819;-29531.899510462834;-29083.333333333332;-448.56617712950356
0.16800000000000012;-203999278.0;-185175477.0;-2614427.0;-4052.3431304019014;-4007.362299299918;-105.89461804185157;-23987.958265032943;-30250.0;6262.041734967056
0.17200000000000013;-220504709.0;-201628504.0;-2370774.0;-4126.357579696434;-4113.25691734177;-81.33265306013163;-18503.612323633206;-31250.0;12746.387676366794
0.17600000000000013;-237224141.0;-218406862.0;-2097847.0;-4179.8577970509405;-4194.589570401901;-57.638829294533025;-13375.054338626569;-32083.333333333332;18708.278994706765
0.18000000000000013;-254084569.0;-235415775.0;-1808366.0;-4215.106795873129;-4252.228399696434;-36.13135735450578;-8812.249705547174;-32750.0;23937.750294452824
0.18400000000000014;-271025092.0;-252569214.0;-1515355.0;-4235.1306236633445;-4288.35975705094;-17.66833882218907;-5005.956947553841;-33166.666666666664;28160.709719112823
0.18800000000000014;-288000559.0;-269793326.0;-1231766.0;-4243.866632196037;-4306.028095873129;-3.0084877902154403;-2184.0021331731805;-33416.666666666664;31232.664533493484
0.19200000000000014;-304983283.0;-287029472.0;-971087.0;-4245.6807298832355;-4309.036583663345;6.904731467307101;-453.5244217995569;-33583.333333333336;33129.80891153378
0.19600000000000015;-321960598.0;-304237999.0;-745284.0;-4244.328567977124;-4302.1318521960375;11.734082312802457;338.04047652779445;-33583.333333333336;33921.37380986113
0.20000000000000015;-338929712.0;-321399590.0;-561008.0;-4242.278257290462;-4290.397769883235;12.408721906111168;512.5776716656674;-33500.0;34012.57767166567
0.20400000000000015;-355892546.0;-338511546.0;-418166.0;-4240.7082941169065;-4277.989047977124;10.620830686661975;392.490793388788;-33166.666666666664;33559.15746005545
0.20800000000000016;-372852122.0;-355581018.0;-311528.0;-4239.8937705827175;-4267.368217290462;7.968243173555493;203.63088354724823;-32750.0;32953.630883547245
0.21200000000000016;-389810769.0;-372618617.0;-233505.0;-4239.661508002536;-4259.399974116906;5.495903534188983;58.065645045417114;-32166.666666666668;32224.732311712083
0.21600000000000016;-406769684.0;-389634233.0;-176536.0;-4239.728534869751;-4253.904070582717;3.650402580181435;-16.756716803683958;-31500.0;31483.243283196316
0.22000000000000017;-423729185.0;-406635247.0;-134437.0;-4239.875133168231;-4250.253668002536;2.4589131327857103;-36.64957462001439;-30583.333333333332;30546.68375871332
0.22400000000000017;-440689141.0;-423626426.0;-102759.0;-4239.988932402317;-4247.79475486975;1.7540817015196808;-28.449808521600062;-29583.333333333332;29554.883524811732
0.22800000000000017;-457649309.0;-440610588.0;-78553.0;-4240.041552769962;-4246.040673168231;1.338560765913826;-13.155091911357886;-28333.333333333332;28320.178241421974
0.23200000000000018;-474609499.0;-457589396.0;-59913.0;-4240.0474946407;-4244.702112402317;1.0657796323539515;-1.485467684460673;-27000.0;26998.514532315538
0.23600000000000018;-491569627.0;-474563941.0;-45558.0;-4240.031728669184;-4243.636332769963;0.8553581292626404;3.941492878993813;-25500.0;25503.941492878992
0.24000000000000019;-508529680.0;-491535064.0;-34563.0;-4240.013139043643;-4242.7809746407;0.6754659715161324;4.647406385402064;-24000.0;24004.647406385404
0.2440000000000002;-525489683.0;-508503486.0;-26194.0;-4240.000556765817;-4242.105508669184;0.5207296255412075;3.145569456364683;-22416.666666666668;22419.812236123034
0.2480000000000002;-542449665.0;-525469825.0;-19858.0;-4239.995239272539;-4241.584779043643;0.3927422778251639;1.3293733195496316;-20750.0;20751.32937331955
0.25200000000000017;-559409646.0;-542434593.0;-15072.0;-4239.99488269925;-4241.192036765818;0.292477493278966;0.08914332215681497;-19166.666666666668;19166.755809988827
0.25600000000000017;-576369633.0;-559398191.0;-11455.0;-4239.996642345846;-4240.899559272539;0.217376573288675;-0.43991164898216084;-17500.0;17499.56008835102
0.2600000000000002;-593329628.0;-576360919.0;-8714.0;-4239.998560869857;-4240.68218269925;0.1627003534040341;-0.47963100269043935;-16000.0;15999.52036899731
0.2640000000000002;-610289628.0;-593322996.0;-6632.0;-4239.999796244659;-4240.519482345846;0.12300147598853073;-0.3088437003953004;-14333.333333333334;14333.024489632939
0.2680000000000002;-627249630.0;-610284581.0;-5047.0;-4240.00027902771;-4240.396480869857;0.09386462519887573;-0.12069576291651174;-12833.333333333334;12833.212637570417
0.2720000000000002;-644209632.0;-627245791.0;-3839.0;-4240.000274737492;-4240.302616244659;0.07199721694814798;0.001072554596248665;-11250.0;11250.001072554596
0.2760000000000002;-661169633.0;-644206713.0;-2919.0;-4240.000078837915;-4240.23061902771;0.05520429021817108;0.04897489429822599;-9750.0;9750.048974894298
0.2800000000000002;-678129633.0;-661167414.0;-2219.0;-4239.999883519075;-4240.175414737492;0.04219589957756398;0.048829709839992574;-8250.0;8250.04882970984
0.2840000000000002;-695089633.0;-678127946.0;-1687.0;-4239.999764911616;-4240.133218837915;0.032115318839714746;0.029651864906554692;-6833.333333333333;6833.36298519824
0.2880000000000002;-712049633.0;-695088350.0;-1283.0;-4239.99972327221;-4240.101103519075;0.024358607459362247;0.010409851483927923;-5416.666666666667;5416.677076518151
0.2920000000000002;-729009632.0;-712048656.0;-977.0;-4239.9997285888885;-4240.076744911616;0.018401639405965398;-0.0013291696632222738;-4083.3333333333335;4083.3320041636703
0.2960000000000002;-745969632.0;-729008889.0;-743.0;-4239.999750543939;-4240.05834327221;0.014034683321369812;-0.005488762553795823;-2833.3333333333335;2833.3278445707797
0.3000000000000002;-762929632.0;-745969066.0;-566.0;-4239.999770553953;-4240.044308588888;0.010598044949801988;-0.005002503485229681;-1833.3333333333333;1833.328330829848
0.3040000000000002;-779889632.0;-762929200.0;-432.0;-4239.999781974019;-4240.0337105439385;0.008019989985768916;-0.0028550166462082416;-1083.3333333333333;1083.330478316687
0.3080000000000002;-796849632.0;-779889302.0;-330.0;-4239.999785512037;-4240.025690553953;0.006108579933425062;-0.0008845045158523135;-416.6666666666667;416.66578216215083
0.3120000000000002;-813809632.0;-796849380.0;-252.0;-4239.999784528641;-4240.019581974019;0.004676461981944158;0.0002458491508150473;0.0;0.0002458491508150473
0.3160000000000002;-830769632.0;-813809439.0;-193.0;-4239.999782128594;-4240.014905512037;0.003540983396305819;0.0006000116172799608;333.3333333333333;-333.33273332171603
0.32000000000000023;-847729632.0;-830769484.0;-148.0;-4239.999780101659;-4240.011364528641;0.0027024000464734854;0.0005067338406661293;500.0;-499.99949326615933
0.32400000000000023;-864689632.0;-847729518.0;-114.0;-4239.999779014991;-4240.008662128595;0.002042026935669128;0.00027166697691427544;500.0;-499.9997283330231
0.32800000000000024;-881649632.0;-864689544.0;-88.0;-4239.9997787273405;-4240.006620101659;0.0015610866676070145;7.191260920080822e-05;500.0;-499.9999280873908
0.33200000000000024;-898609632.0;-881649564.0;-68.0;-4239.999778870243;-4240.005059014991;0.0012002876510450733;-3.572563400666695e-05;333.3333333333333;-333.3333690589673
0.33600000000000024;-915569632.0;-898609579.0;-53.0;-4239.999779128569;-4240.00385872734;0.0008998570974654285;-6.458139978349209e-05;333.3333333333333;-333.3333979147331
0.34000000000000025;-932529631.0;-915569590.0;-42.0;-4239.999779332187;-4240.002958870243;0.0006597416740987683;-5.090464583190624e-05;250.0;-250.00005090464583
0.34400000000000025;-949489631.0;-932529599.0;-32.0;-4239.999779434347;-4240.002299128569;0.0005997963817208074;-2.5539975467836484e-05;166.66666666666666;-166.66669220664213
0.34800000000000025;-966449631.0;-949489605.0;-26.0;-4239.999779456166;-4240.001699332187;0.00035989784009871073;-5.454694473883137e-06;83.33333333333333;-83.3333387880278
0.35200000000000026;-983409631.0;-966449610.0;-21.0;-4239.999779437528;-4240.001339434347;0.00029997818091942463;4.659568730858155e-06;83.33333333333333;-83.3333286737646
0.35600000000000026;-1000369631.0;-983409614.0;-17.0;-4239.999779410111;-4240.001039456166;0.00024001863857847638;6.8541794462362304e-06;83.33333333333333;-83.33332647915388
0.36000000000000026;-1017329631.0;-1000369617.0;-14.0;-4239.999779389724;-4240.000799437527;0.00018002741671807598;5.09680830873549e-06;83.33333333333333;-83.33332823652502
0.36400000000000027;-1034289631.0;-1017329619.0;-12.0;-4239.999779380245;-4240.000619410111;0.00012002038693026407;2.3696884454693645e-06;0.0;2.3696884454693645e-06
0.36800000000000027;-1051249631.0;-1034289620.0;-11.0;-4239.999779378845;-4240.000499389724;6.000947905704379e-05;3.4992808650713414e-07;0.0;3.4992808650713414e-07
0.3720000000000003;-1068209631.0;-1051249621.0;-10.0;-4239.999779381073;-4240.000439380245;6.000139910611324e-05;-5.568381311604753e-07;0.0;-5.568381311604753e-07
0.3760000000000003;-1085169631.0;-1068209622.0;-9.0;-4239.99977938403;-4240.0003793788455;5.999777295073727e-05;-7.394191925413907e-07;0.0;-7.394191925413907e-07
0.3800000000000003;-1102129631.0;-1085169623.0;-8.0;-4239.999779385939;-4240.000319381073;5.999704262649175e-05;-4.772573447553441e-07;0.0;-4.772573447553441e-07
0.3840000000000003;-1119089631.0;-1102129624.0;-7.0;-4239.999779386861;-4240.00025938403;5.999809036438819e-05;-2.3032953322399408e-07;0.0;-2.3032953322399408e-07
0.3880000000000003;-1136049631.0;-1119089624.0;-7.0;-4239.999779386861;-4240.00019938594;-9.213181328959763e-10;0.0;0.0;0.0
0.3920000000000003;-1153009630.0;-1136049624.0;-7.0;-4239.999779386639;-4240.000199386861;0.0;5.547917680814862e-08;0.0;5.547917680814862e-08
0.3960000000000003;-1169969630.0;-1153009624.0;-6.0;-4239.999779386351;-4240.000199386861;6.0000222219969146e-05;7.185008144006133e-08;0.0;7.185008144006133e-08
0.4000000000000003;-1186929630.0;-1169969624.0;-6.0;-4239.9997793860975;-4240.000139386639;2.874003257602453e-10;6.343725544866174e-08;0.0;6.343725544866174e-08
0.4040000000000003;-1203889630.0;-1186929624.0;-6.0;-4239.9997793860975;-4240.000139386351;2.53749021794647e-10;0.0;0.0;0.0
0.4080000000000003;-1220849630.0;-1203889624.0;-6.0;-4239.999779386161;-4240.0001393860975;0.0;-1.5916157281026244e-08;0.0;-1.5916157281026244e-08
0.4120000000000003;-1237809630.0;-1220849624.0;-6.0;-4239.999779386161;-4240.0001393860975;-6.366462912410498e-11;0.0;0.0;0.0
0.4160000000000003;-1254769630.0;-1237809624.0;-6.0;-4239.9997793860975;-4240.000139386161;0.0;1.5916157281026244e-08;0.0;1.5916157281026244e-08
0.4200000000000003;-1271729446.0;-1254769624.0;-6.0;-4239.9537378026935;-4240.000139386161;6.366462912410498e-11;11.510395851018984;0.0;11.510395851018984
0.4240000000000003;-1288687887.0;-1271729624.0;178.0;-4239.610006400529;-4240.0001393860975;0.05708158340439695;85.93285054121225;0.0;85.93285054121225
0.4280000000000003;-1305641342.0;-1288689396.0;1509.0;-4238.363701210629;-4239.943057802693;0.42359140216467495;311.5762974748577;0.0;311.5762974748577
0.43200000000000033;-1322581859.0;-1305647473.0;6131.0;-4235.128935387382;-4239.5194664005285;1.523625189899576;808.6914558118679;83.33333333333333;725.3581224785345
0.43600000000000033;-1339493236.0;-1322599456.0;17597.0;-4227.844063134722;-4237.995841210629;3.9227258232467648;1821.2180631649062;83.33333333333333;1737.884729831573
0.44000000000000034;-1356345095.0;-1339535748.0;42512.0;-4212.964588996206;-4234.073115387382;8.779772252660223;3719.868534629086;83.33333333333333;3636.5352012957524
0.44400000000000034;-1373088921.0;-1356436921.0;91826.0;-4185.956404100068;-4225.293343134722;17.83831413851658;6752.04622403453;0.0;6752.04622403453
0.44800000000000034;-1389659057.0;-1373266741.0;177820.0;-4142.533654787963;-4207.455028996205;32.16782489613797;10855.687328026079;83.33333333333333;10772.353994692745
0.45200000000000035;-1405977161.0;-1389967889.0;308832.0;-4079.525748436899;-4175.287204100067;51.28346931210399;15751.97658776608;250.0;15501.97658776608
0.45600000000000035;-1421957576.0;-1406463903.0;486742.0;-3995.103744884656;-4124.003734787963;73.68250635106415;21105.50088806076;583.3333333333334;20522.167554727428
0.46000000000000035;-1437512424.0;-1422665187.0;707611.0;-3888.7117023439055;-4050.321228436899;97.6741435522431;26598.01063518762;1000.0;25598.01063518762
0.46400000000000036;-1452555717.0;-1438475775.0;963351.0;-3760.823063253319;-3952.647084884656;121.73644254075043;31972.15977264659;1583.3333333333333;30388.82643931326
0.46800000000000036;-1467006498.0;-1453799417.0;1243700.0;-3612.6950479187;-3830.9106423439057;144.70957909058643;37032.00383365481;2333.3333333333335;34698.67050032148
0.47200000000000036;-1480792950.0;-1468544221.0;1537723.0;-3446.612796507648;-3686.2010632533193;165.76939533461928;41520.56285276297;3250.0;38270.56285276297
0.47600000000000037;-1493858073.0;-1482625947.0;1832997.0;-3266.2806635845614;-3520.4316679187;183.798691411052;45083.03323077166;4333.333333333333;40749.69989743833
0.48000000000000037;-1506163305.0;-1495972478.0;2114405.0;-3076.3079639289476;-3336.632976507648;197.2166129230868;47493.17491390343;5666.666666666667;41826.508247236765
0.4840000000000004;-1517687286.0;-1508530143.0;2366838.0;-2880.994968894685;-3139.416363584561;205.1186796556135;48828.24875856568;7083.333333333333;41744.91542523234
0.4880000000000004;-1528421279.0;-1520267333.0;2580047.0;-2683.498294551577;-2934.2976839289477;208.10553503426263;49374.16858577694;8666.666666666666;40707.50191911028
0.4920000000000004;-1538363976.0;-1531172101.0;2750822.0;-2485.6739259334663;-2726.192148894685;207.74317434310797;49456.09215452771;10166.666666666666;39289.425487861045
0.4960000000000004;-1547517241.0;-1541245896.0;2881920.0;-2288.3163207208077;-2518.448974551577;205.69024861811067;49339.40130316466;11833.333333333334;37506.06796983133
0.5000000000000003;-1555883448.0;-1550496930.0;2979689.0;-2091.5514771400826;-2312.7587259334664;203.22374521265874;49191.210895181255;13416.666666666666;35774.54422851459
0.5040000000000003;-1563464353.0;-1558935069.0;3051621.0;-1895.2262831450576;-2109.5349807208077;201.08076358072503;49081.29849875627;15083.333333333334;33997.96516542294
0.5080000000000003;-1570261232.0;-1566568885.0;3104532.0;-1699.2197121097988;-1908.4542171400826;199.49985399502498;49001.64275881468;16666.666666666668;32334.976092148016
