Zeit[sec];Sollposition[°];Istposition[°];Positionsschleppfehler[°];Sollgeschwindigkeit[°/s];Istgeschwindigkeit[°/s];Geschwindigkeitsdifferenz[°/s];Sollbeschleunigung[°/s*s];Istbeschleunigung[°/s*s];Beschleunigungsdifferenz[°/s*s]
0.0;0.0;4.0;-4.0;-0.0;-0.00023999999999999998;0.0;0.0;0.0;0.0
0.004;0.0;4.0;-4.0;-0.0;-0.00023999999999999998;0.0;0.0;0.0;0.0
0.008;0.0;4.0;-4.0;-0.0;-0.00023999999999999998;0.0;0.0;0.0;0.0
0.012;0.0;4.0;-4.0;-0.0;-0.00023999999999999998;0.0;0.0;0.0;0.0
0.016;0.0;4.0;-4.0;-0.0;-0.00023999999999999998;0.0;0.0;0.0;0.0
0.02;0.0;4.0;-4.0;-0.0;-0.00023999999999999998;0.0;0.0;0.0;0.0
0.024;0.0;4.0;-4.0;-0.0;-0.00023999999999999998;0.0;0.0;0.0;0.0
0.028;0.0;4.0;-4.0;-0.0;-0.00023999999999999998;0.0;0.0;0.0;0.0
0.032;0.0;4.0;-4.0;-0.0;-0.00023999999999999998;0.0;0.0;0.0;0.0
0.036000000000000004;0.0;4.0;-4.0;-0.0;-0.00023999999999999998;0.0;0.0;0.0;0.0
0.04000000000000001;0.0;4.0;-4.0;-0.0;-0.00023999999999999998;0.0;0.0;0.0;0.0
0.04400000000000001;0.0;4.0;-4.0;-0.0;-0.00023999999999999998;0.0;0.0;0.0;0.0
0.048000000000000015;0.0;4.0;-4.0;-0.0;-0.00023999999999999998;0.0;0.0;0.0;0.0
0.05200000000000002;0.0;4.0;-4.0;-0.0;-0.00023999999999999998;0.0;0.0;0.0;0.0
0.05600000000000002;0.0;4.0;-4.0;-0.0;-0.00023999999999999998;0.0;0.0;0.0;0.0
0.060000000000000026;-664.0;4.0;-4.0;-0.16617118906550613;-0.00023999999999999998;0.0;-41.54279726637653;0.0;-41.54279726637653
0.06400000000000003;-7288.0;4.0;-668.0;-1.6560077115912246;-0.00023999999999999998;-0.20601118906550614;-372.4591306314296;0.0;-372.4591306314296
0.06800000000000003;-39847.0;-821.0;-6467.0;-8.139613705457469;-0.20625118906550613;-1.8377765225257183;-1620.9014984665612;0.0;-1620.9014984665612
0.07200000000000004;-147463.0;-8997.0;-30850.0;-26.90419868492454;-2.0440277115912244;-7.946585993866243;-4691.146244866768;0.0;-4691.146244866768
0.07600000000000004;-420469.0;-48959.0;-98504.0;-68.25147956430779;-9.990613705457468;-22.82382497946707;-10336.820219845811;0.0;-10336.820219845811
0.08000000000000004;-991457.0;-180216.0;-240253.0;-142.7470118571982;-32.81443868492454;-49.85222087938325;-18623.883073222605;-83.33333333333333;-18540.54973988927
0.08400000000000005;-2022753.0;-510882.0;-480575.0;-257.82383163245953;-82.66665956430779;-88.9148522928904;-28769.204943815334;-250.0;-28519.204943815334
0.08800000000000005;-3690225.0;-1197208.0;-825545.0;-416.8679779559811;-171.5815118571982;-135.7750197752613;-39761.03658088038;-750.0;-39011.03658088038
0.09200000000000005;-6175074.0;-2426634.0;-1263591.0;-621.212267391309;-307.3565316324595;-185.32690632352154;-51086.07235883197;-1416.6666666666667;-49669.4056921653
0.09600000000000006;-9661155.0;-4397367.0;-1777707.0;-871.5200933277906;-492.68343795598105;-235.1912494353279;-62576.95648412042;-2583.3333333333335;-59993.62315078708
0.10000000000000006;-14326497.0;-7308865.0;-2352290.0;-1166.3355239153448;-727.874687391309;-284.7828059364816;-73703.85764688853;-4000.0;-69703.85764688853
0.10400000000000006;-20327067.0;-11359494.0;-2967003.0;-1500.1425441425586;-1012.6574933277906;-331.6982105875542;-83451.75505680345;-5833.333333333333;-77618.42172347012
0.10800000000000007;-27780786.0;-16736916.0;-3590151.0;-1863.429477485137;-1344.3557039153447;-371.19590022721377;-90821.73333564463;-8000.0;-82821.73333564463
0.11200000000000007;-36752891.0;-23599122.0;-4181664.0;-2243.026174805133;-1715.5516041425585;-398.7777133425784;-94899.17432999898;-10583.333333333334;-84315.84099666563
0.11600000000000008;-47240912.0;-32056439.0;-4696452.0;-2622.005136192288;-2114.329317485137;-410.48397731999603;-94744.74034678872;-13500.0;-81244.74034678872
0.12000000000000008;-59168819.0;-42155692.0;-5085220.0;-2981.9766494701;-2524.813294805133;-402.3050413871547;-89992.87831945298;-16583.333333333332;-73409.54498611965
0.12400000000000008;-72398181.0;-53864165.0;-5304654.0;-3307.3402752457164;-2927.1183361922876;-373.137553277812;-81340.90644390414;-19666.666666666668;-61674.239777237475
0.12800000000000009;-86749802.0;-67065188.0;-5332993.0;-3587.9051194718795;-3300.2558894700996;-327.0639657756169;-70141.21105654078;-22750.0;-47391.211056540786
0.1320000000000001;-102025537.0;-81574467.0;-5175335.0;-3818.9336681968152;-3627.3198552457166;-271.1053642261627;-57757.13718123393;-25666.666666666668;-32090.470514567263
0.1360000000000001;-118025753.0;-97168167.0;-4857370.0;-4000.0537347163818;-3898.4252194718792;-211.9506487249364;-45280.01662989163;-28250.0;-17030.016629891634
0.1400000000000001;-134561310.0;-113609670.0;-4416083.0;-4133.889023927283;-4110.375868196816;-154.64284651956586;-33458.82230272537;-30333.333333333332;-3125.488969392034
0.1440000000000001;-151460681.0;-130669744.0;-3891566.0;-4224.842645962267;-4265.0187147163815;-102.36426921090151;-22738.405508745927;-31916.666666666668;9178.26115792074
0.1480000000000001;-168577107.0;-148139275.0;-3321406.0;-4279.106310844016;-4367.382983927283;-56.74402203498357;-13565.916220437202;-33166.666666666664;19600.75044622946
0.1520000000000001;-185798299.0;-165835783.0;-2741324.0;-4305.297699416143;-4424.127005962267;-19.458744881749226;-6547.847143031731;-34000.0;27452.15285696827
0.1560000000000001;-203052017.0;-183610126.0;-2188173.0;-4313.4293355207255;-4443.585750844016;6.997671427872774;-2032.9090261457168;-34500.0;32467.090973854283
0.16000000000000011;-220301773.0;-201356478.0;-1695539.0;-4312.438704465163;-4436.588079416143;21.426403895417934;247.6577638906292;-34666.666666666664;34914.324430557295
0.16400000000000012;-237535825.0;-219017124.0;-1284649.0;-4308.512761801527;-4415.161675520725;25.644031055561754;981.4856659090765;-34666.666666666664;35648.152332575744
0.16800000000000012;-254755542.0;-236575194.0;-960631.0;-4304.929135221167;-4389.517644465163;23.367022663636817;895.9066450900082;-34500.0;35395.906645090006
0.17200000000000013;-271966683.0;-254039796.0;-715746.0;-4302.785075263459;-4366.1506218015265;18.276726580359536;536.0149894270307;-34250.0;34786.01498942703
0.17600000000000013;-289174543.0;-271431291.0;-535392.0;-4301.964672374271;-4347.873895221167;12.96529995770834;205.10072229694742;-34083.333333333336;34288.434055630285
0.18000000000000013;-306382270.0;-288770925.0;-403618.0;-4301.931772296697;-4334.908595263459;8.726842889187537;8.225019393421462;-34000.0;34008.22501939342
0.18400000000000014;-323591027.0;-306075652.0;-306618.0;-4302.188873410234;-4326.181752374271;5.852900077574304;-64.27527838422975;-33916.666666666664;33852.391388282434
0.18800000000000014;-340800790.0;-323356967.0;-234060.0;-4302.4406584701355;-4320.328852296697;4.096378886462844;-62.94626497538047;-33833.333333333336;33770.38706835796
0.19200000000000014;-358011116.0;-340621896.0;-178894.0;-4302.581287131622;-4316.232473410234;3.05817494009807;-35.15716537162916;-33750.0;33714.84283462837
0.19600000000000015;-375221587.0;-357874593.0;-136523.0;-4302.617416445778;-4313.174298470136;2.4016313385136527;-9.032328538978618;-33666.666666666664;33657.63433812768
0.20000000000000015;-392431969.0;-375117683.0;-103904.0;-4302.595330333067;-4310.772667131622;1.9210106858445215;5.521528177723667;-33666.666666666664;33672.18819484439
0.20400000000000015;-409642200.0;-392353089.0;-78880.0;-4302.557590600497;-4308.851656445778;1.523526112710897;9.43493314252919;-33583.333333333336;33592.76826647586
0.20800000000000016;-426852312.0;-409582401.0;-59799.0;-4302.527910784061;-4307.328130333067;1.1825997325695425;7.419954109082028;-33583.333333333336;33590.75328744242
0.21200000000000016;-444062365.0;-426806983.0;-45329.0;-4302.51287097815;-4306.145530600497;0.8978798164371256;3.7599514776047727;-33333.333333333336;33337.09328481094
0.21600000000000016;-461272403.0;-444027973.0;-34392.0;-4302.509488314614;-4305.24765078406;0.6712598059102675;0.8456658840714226;-32916.666666666664;32917.51233255074
0.22000000000000017;-478482453.0;-461246278.0;-26125.0;-4302.512062847811;-4304.57639097815;0.49940266353587504;-0.6436332992052485;-32166.666666666668;32166.023033367463
0.22400000000000017;-495692517.0;-478462585.0;-19868.0;-4302.516009433207;-4304.076988314614;0.37284546680348285;-0.986646349019793;-31083.333333333332;31082.34668698431
0.22800000000000017;-512902594.0;-495677401.0;-15116.0;-4302.518967436846;-4303.7041428478105;0.28117341460347234;-0.7395009097308503;-29666.666666666668;29665.927165756937
0.23200000000000018;-530112676.0;-512891092.0;-11502.0;-4302.520381345445;-4303.422969433207;0.21388199636112404;-0.3534771497015754;-27833.333333333332;27832.97985618363
0.23600000000000018;-547322760.0;-530103928.0;-8748.0;-4302.52063127754;-4303.209087436846;0.16382609140146087;-0.06248302383937698;-25583.333333333332;25583.27085030949
0.24000000000000019;-564532842.0;-547316109.0;-6651.0;-4302.520321936234;-4303.0452613454445;0.12557006790484593;0.07733532652309805;-23000.0;23000.077335326525
0.2440000000000002;-581742922.0;-564527787.0;-5055.0;-4302.519911744425;-4302.91969127754;0.09606934130624722;0.10254795211039891;-20083.333333333332;20083.43588128544
0.2480000000000002;-598953002.0;-581739081.0;-3841.0;-4302.51962215942;-4302.823621936233;0.0732501918082562;0.07239625142574369;-17083.333333333332;17083.40572958476
0.25200000000000017;-616163080.0;-598950082.0;-2920.0;-4302.519493988575;-4302.750371744425;0.055549585005792323;0.032042711154645076;-13916.666666666666;13916.69870937782
0.25600000000000017;-633373159.0;-616160861.0;-2219.0;-4302.519480288177;-4302.694822159419;0.04218817084438342;0.0034250995213369606;-10833.333333333334;10833.336758432855
0.2600000000000002;-650583238.0;-633371471.0;-1688.0;-4302.519517577953;-4302.652633988575;0.03187370039813686;-0.009322443929704605;-7916.666666666667;7916.657344222737
0.2640000000000002;-667793317.0;-650581954.0;-1284.0;-4302.5195606270445;-4302.620760288177;0.02420271022401721;-0.010762272950159968;-5416.666666666667;5416.655904393717
0.2680000000000002;-685003396.0;-667792340.0;-977.0;-4302.519589159194;-4302.596557577953;0.018376950908532308;-0.0071330373430100735;-3333.3333333333335;3333.3262002959905
0.2720000000000002;-702213476.0;-685002652.0;-744.0;-4302.519600765292;-4302.578180627044;0.013951467850347399;-0.002901524567278102;-1666.6666666666667;1666.6637651420995
0.2760000000000002;-719423555.0;-702212908.0;-568.0;-4302.519601096675;-4302.564229159194;0.010548393901444797;-8.284564501082059e-05;-416.6666666666667;416.6665838210217
0.2800000000000002;-736633634.0;-719423122.0;-433.0;-4302.519596807823;-4302.5536807652925;0.008099668617433053;0.0010722128536144737;416.6666666666667;-416.66559445381307
0.2840000000000002;-753843713.0;-736633304.0;-330.0;-4302.519592353934;-4302.545581096675;0.006184288851727615;0.001113472308134078;833.3333333333334;-833.3322198610252
0.2880000000000002;-771053792.0;-753843461.0;-252.0;-4302.519589574065;-4302.539396807823;0.004684453889240103;0.0006949671842448879;1000.0;-999.9993050328158
0.2920000000000002;-788263871.0;-771053599.0;-193.0;-4302.519588546492;-4302.534712353934;0.0035427798684395384;0.00025689337235235143;1000.0;-999.9997431066276
0.2960000000000002;-805473951.0;-788263723.0;-148.0;-4302.5195886182455;-4302.531169574066;0.002701027573493775;-1.793841875041835e-05;833.3333333333334;-833.3333512717521
0.3000000000000002;-822684030.0;-805473836.0;-115.0;-4302.5195890996865;-4302.528468546492;0.0019799282463281997;-0.00012036025509587489;666.6666666666666;-666.6667870269217
0.3040000000000002;-839894109.0;-822683941.0;-89.0;-4302.5195895560955;-4302.526488618246;0.0015595185595884686;-0.00011410224942665081;500.0;-500.0001141022494
0.3080000000000002;-857104188.0;-839894040.0;-69.0;-4302.519589824344;-4302.524929099686;0.0011995435907010688;-6.706204658257775e-05;416.6666666666667;-416.66673372871327
0.3120000000000002;-874314267.0;-857104134.0;-54.0;-4302.519589912827;-4302.5237295560955;0.0008997317518151249;-2.212073013652116e-05;333.3333333333333;-333.33335545406345
0.3160000000000002;-891524347.0;-874314225.0;-42.0;-4302.519589895111;-4302.522829824344;0.0007199115170806181;4.429011823958717e-06;166.66666666666666;-166.66666223765483
0.32000000000000023;-908734426.0;-891524313.0;-34.0;-4302.519589842027;-4302.522109912827;0.00048001771574490704;1.3270891940919682e-05;166.66666666666666;-166.66665339577472
0.32400000000000023;-925944505.0;-908734399.0;-27.0;-4302.519589795592;-4302.521629895111;0.00042005308387160767;1.1608790373429656e-05;83.33333333333333;-83.33332172454296
0.32800000000000024;-943154584.0;-925944483.0;-22.0;-4302.519589770051;-4302.521209842027;0.0003000464348588139;6.385107553796843e-06;83.33333333333333;-83.33332694822577
0.33200000000000024;-960364663.0;-943154566.0;-18.0;-4302.519589762673;-4302.520909795592;0.00024002554073376814;1.8446826288709417e-06;0.0;1.8446826288709417e-06
0.33600000000000024;-977574742.0;-960364648.0;-15.0;-4302.5195897654075;-4302.520669770051;0.00018000737873080652;-6.837126420577988e-07;83.33333333333333;-83.33333401704597
0.34000000000000025;-994784822.0;-977574729.0;-13.0;-4302.519589771292;-4302.520489762673;0.0001199972648464609;-1.4711076801177114e-06;83.33333333333333;-83.33333480444101
0.34400000000000025;-1011994901.0;-994784810.0;-12.0;-4302.519589775872;-4302.520369765408;5.999411587254144e-05;-1.1450538295321167e-06;83.33333333333333;-83.33333447838716
0.34800000000000025;-1029204980.0;-1011994891.0;-10.0;-4302.5195897783215;-4302.520309771292;0.000119995419481711;-6.123173079686239e-07;0.0;-6.123173079686239e-07
0.35200000000000026;-1046415059.0;-1029204971.0;-9.0;-4302.519589778957;-4302.5201897758725;5.999755103403004e-05;-1.589341991348192e-07;0.0;-1.589341991348192e-07
0.35600000000000026;-1063625138.0;-1046415051.0;-8.0;-4302.519589778575;-4302.5201297783215;5.9999364566465374e-05;9.549694368615746e-08;0.0;9.549694368615746e-08
0.36000000000000026;-1080835217.0;-1063625131.0;-7.0;-4302.519589777876;-4302.520069778957;6.0000381381541956e-05;1.7485035641584545e-07;0.0;1.7485035641584545e-07
0.36400000000000027;-1098045297.0;-1080835211.0;-6.0;-4302.519589777462;-4302.5200097785755;6.000069970468758e-05;1.0345502232667059e-07;0.0;1.0345502232667059e-07
0.36800000000000027;-1115255376.0;-1098045290.0;-7.0;-4302.51958977724;-4302.519949777876;-5.999958648317261e-05;5.547917680814862e-08;0.0;5.547917680814862e-08
0.3720000000000003;-1132465455.0;-1115255370.0;-6.0;-4302.519589777208;-4302.520009777462;6.0000222219969146e-05;7.958078640513122e-09;0.0;7.958078640513122e-09
0.3760000000000003;-1149675534.0;-1132465449.0;-6.0;-4302.519589777208;-4302.51994977724;3.183231456205249e-11;0.0;0.0;0.0
0.3800000000000003;-1166885613.0;-1149675528.0;-6.0;-4302.519589777303;-4302.519949777208;0.0;-2.3646862246096134e-08;0.0;-2.3646862246096134e-08
0.3840000000000003;-1184095693.0;-1166885607.0;-6.0;-4302.519589777303;-4302.519949777208;-9.458744898438454e-11;0.0;0.0;0.0
0.3880000000000003;-1201305772.0;-1184095686.0;-7.0;-4302.51958977724;-4302.519949777303;-6.000000030326191e-05;1.5688783605583012e-08;0.0;1.5688783605583012e-08
0.3920000000000003;-1218515851.0;-1201305766.0;-6.0;-4302.519589777303;-4302.520009777303;6.0000063058396336e-05;-1.5688783605583012e-08;0.0;-1.5688783605583012e-08
0.3960000000000003;-1235725930.0;-1218515845.0;-6.0;-4302.5195897773665;-4302.51994977724;-6.275513442233205e-11;-1.5916157281026244e-08;0.0;-1.5916157281026244e-08
0.4000000000000003;-1252936009.0;-1235725924.0;-6.0;-4302.519589777303;-4302.519949777303;-6.366462912410498e-11;1.5916157281026244e-08;0.0;1.5916157281026244e-08
0.4040000000000003;-1270146088.0;-1252936003.0;-6.0;-4302.5195897773665;-4302.5199497773665;6.366462912410498e-11;-1.5916157281026244e-08;0.0;-1.5916157281026244e-08
0.4080000000000003;-1287356164.0;-1270146082.0;-6.0;-4302.518660748775;-4302.519949777303;-6.366462912410498e-11;0.2322571478998725;0.0;0.2322571478998725
0.4120000000000003;-1304566212.0;-1287356161.0;-3.0;-4302.511724926169;-4302.5199497773665;0.001109028591599781;1.7339556513888965;0.0;1.7339556513888965
0.4160000000000003;-1321776159.0;-1304566236.0;24.0;-4302.486576941971;-4302.518840748775;0.008555822605558205;6.286996049539084;0.0;6.286996049539084
0.4200000000000003;-1338984948.0;-1321776277.0;118.0;-4302.197022211623;-4302.510284926169;0.03078798419846862;72.3886825869613;0.0;72.3886825869613
0.4240000000000003;-1356186451.0;-1338986194.0;1246.0;-4300.375600396234;-4302.479496941971;0.3572347303479546;455.35545384723264;0.0;455.35545384723264
0.4280000000000003;-1373362468.0;-1356194683.0;8232.0;-4294.004204034735;-4302.122262211623;2.2405818153883956;1592.8490903747843;0.0;1592.8490903747843
0.43200000000000033;-1390476979.0;-1373394209.0;31741.0;-4278.627303941472;-4299.8816803962345;7.7819363614989925;3844.2250233158575;0.0;3844.2250233158575
0.43600000000000033;-1407473679.0;-1390562607.0;85628.0;-4249.174872246679;-4292.0997440347355;18.610120093263504;7363.1079236981805;0.0;7363.1079236981805
0.44000000000000034;-1424275591.0;-1407656565.0;182886.0;-4200.477762629959;-4273.489623941472;35.287911694792456;12174.277404179975;83.33333333333333;12090.94407084664
0.44400000000000034;-1440786971.0;-1424609371.0;333780.0;-4127.844880528686;-4238.20171224668;57.750749616719986;18158.220525318255;250.0;17908.220525318255
0.44800000000000034;-1456898147.0;-1441331174.0;544203.0;-4027.793885752742;-4180.45096262996;85.25826210127343;25012.748693986054;583.3333333333334;24429.41536065272
0.45200000000000035;-1472491589.0;-1457711944.0;813797.0;-3898.360140162534;-4095.192700528686;116.22663477594415;32358.43639755194;1083.3333333333333;31275.10306421861
0.45600000000000035;-1487447859.0;-1473627808.0;1136219.0;-3739.0675383740936;-3978.966065752742;148.77906559020767;39823.15044711015;1750.0;38073.15044711015
0.46000000000000035;-1501652696.0;-1488948556.0;1500697.0;-3551.2090763297138;-3830.1870001625343;181.16128178844065;46964.61551109496;2583.3333333333335;44381.28217776163
0.46400000000000036;-1515005148.0;-1503544658.0;1891962.0;-3338.1126281240067;-3649.0257183740937;211.33436204437976;53274.11205142675;3750.0;49524.11205142675
0.46800000000000036;-1527423310.0;-1517295423.0;2290275.0;-3104.540434610476;-3437.691356329714;236.995228205707;58393.04837838267;5166.666666666667;53226.38171171601
0.47200000000000036;-1538846325.0;-1530098207.0;2674897.0;-2855.7536391180315;-3200.696128124007;256.649513513531;62196.698873111134;6833.333333333333;55363.3655397778
0.47600000000000037;-1549234309.0;-1541874393.0;3028068.0;-2596.9958634831123;-2944.046614610476;269.9770554924444;64689.4439087298;8666.666666666666;56022.77724206314
0.48000000000000037;-1558566470.0;-1552570671.0;3336362.0;-2333.040077306269;-2674.0695591180315;277.25541563491925;65988.94654421088;10666.666666666666;55322.279877544206
0.4840000000000004;-1566837595.0;-1562157927.0;3591457.0;-2067.781264365767;-2396.8141434831123;279.2614861768434;66314.70323512542;12750.0;53564.703235125424
0.4880000000000004;-1574054449.0;-1570628137.0;3790542.0;-1804.2133650626547;-2117.552657306269;277.2039129405018;65891.9748257781;14916.666666666666;50975.30815911144
0.4920000000000004;-1580233748.0;-1577989531.0;3935082.0;-1544.8248004515067;-1840.348744365767;272.24029930311235;64847.141152787;17000.0;47847.141152787
0.4960000000000004;-1585404311.0;-1584261964.0;4028216.0;-1292.6406232156214;-1568.1084450626547;264.9766046111479;63046.044308971315;19250.0;43796.044308971315
0.5000000000000003;-1589613361.0;-1589474491.0;4070180.0;-1052.2624405124952;-1303.1318404515068;254.70201723588548;60094.54567578155;21333.333333333332;38761.21234244821
0.5040000000000003;-1592931252.0;-1593668210.0;4054849.0;-829.4725705847428;-1048.4298232156214;239.4583227031261;55697.4674819381;23416.666666666668;32280.800815271436
0.5080000000000003;-1595450057.0;-1596904096.0;3972844.0;-629.7013671215426;-808.9715005124953;217.86956992775242;49942.800865800054;25416.666666666668;24526.134199133383
0.5120000000000003;-1597277615.0;-1599268503.0;3818446.0;-456.88939351334574;-591.1019305847428;190.50732346320024;43202.993402049215;27250.0;15952.993402049216
