Zeit[sec];Sollposition[°];Istposition[°];Positionsschleppfehler[°];Sollgeschwindigkeit[°/s];Istgeschwindigkeit[°/s];Geschwindigkeitsdifferenz[°/s];Sollbeschleunigung[°/s*s];Istbeschleunigung[°/s*s];Beschleunigungsdifferenz[°/s*s]
0.0;0.0;5.0;-5.0;-0.0;-0.00021499999999999997;0.0;0.0;0.0;0.0
0.004;0.0;5.0;-5.0;-0.0;-0.00021499999999999997;0.0;0.0;0.0;0.0
0.008;0.0;5.0;-5.0;-0.0;-0.00021499999999999997;0.0;0.0;0.0;0.0
0.012;0.0;5.0;-5.0;-0.0;-0.00021499999999999997;0.0;0.0;0.0;0.0
0.016;0.0;5.0;-5.0;-0.0;-0.00021499999999999997;0.0;0.0;0.0;0.0
0.02;0.0;5.0;-5.0;-0.0;-0.00021499999999999997;0.0;0.0;0.0;0.0
0.024;0.0;5.0;-5.0;-0.0;-0.00021499999999999997;0.0;0.0;0.0;0.0
0.028;0.0;5.0;-5.0;-0.0;-0.00021499999999999997;0.0;0.0;0.0;0.0
0.032;0.0;5.0;-5.0;-0.0;-0.00021499999999999997;0.0;0.0;0.0;0.0
0.036000000000000004;0.0;5.0;-5.0;-0.0;-0.00021499999999999997;0.0;0.0;0.0;0.0
0.04000000000000001;0.0;5.0;-5.0;-0.0;-0.00021499999999999997;0.0;0.0;0.0;0.0
0.04400000000000001;0.0;5.0;-5.0;-0.0;-0.00021499999999999997;0.0;0.0;0.0;0.0
0.048000000000000015;0.0;5.0;-5.0;-0.0;-0.00021499999999999997;0.0;0.0;0.0;0.0
0.05200000000000002;-360.0;5.0;-5.0;-0.09012415825890183;-0.00021499999999999997;0.0;-22.531039564725457;0.0;-22.531039564725457
0.05600000000000002;-3953.0;5.0;-365.0;-0.8981478794051133;-0.00021499999999999997;-0.10560415825890182;-202.00593028655288;0.0;-202.00593028655288
0.060000000000000026;-21611.0;-418.0;-3535.0;-4.414578952478918;-0.10581915825890183;-0.9443337211462115;-879.1077682684511;0.0;-879.1077682684511
0.06400000000000003;-79978.0;-4618.0;-16993.0;-14.591688690114717;-1.0501528794051134;-4.095125073073804;-2544.27743440895;0.0;-2544.27743440895
0.06800000000000003;-228044.0;-25199.0;-54779.0;-37.01668851416437;-5.145277952478917;-11.801907737635798;-5606.249956012413;0.0;-5606.249956012413
0.07200000000000004;-537724.0;-92987.0;-135057.0;-77.41988463816479;-16.947185690114715;-25.876953824049657;-10100.799031000104;0.0;-10100.799031000104
0.07600000000000004;-1097055.0;-264283.0;-273441.0;-139.8326384719904;-42.82413951416437;-46.35370812400042;-15603.188458456405;-166.66666666666666;-15436.521791789739
0.08000000000000004;-2001420.0;-620994.0;-476061.0;-226.09139303788876;-89.17784763816479;-71.1254138338256;-21564.68864147459;-333.3333333333333;-21231.355308141257
0.08400000000000005;-3349096.0;-1262207.0;-739213.0;-336.9190111352371;-160.3032614719904;-97.5742905658984;-27706.904524337082;-750.0;-26956.904524337082
0.08800000000000005;-5240123.0;-2293717.0;-1055379.0;-472.75669808160166;-257.8775520378888;-124.42275609734833;-33959.42173659114;-1250.0;-32709.42173659114
0.09200000000000005;-7773162.0;-3822918.0;-1417205.0;-633.259773931159;-382.3003081352371;-151.39620494636455;-40125.76896238933;-2083.3333333333335;-38042.435629055995
0.09600000000000006;-11039187.0;-5957704.0;-1815458.0;-816.5061216574162;-533.6965130816017;-177.62795484955734;-45811.58693156431;-3083.3333333333335;-42728.25359823097
0.10000000000000006;-15115655.0;-8803001.0;-2236186.0;-1019.1168434704056;-711.324467931159;-201.33765172625715;-50652.68045324734;-4250.0;-46402.68045324734
0.10400000000000006;-20062967.0;-12453649.0;-2662006.0;-1236.8280723657022;-912.6621196574162;-220.92098181298945;-54427.807223824144;-5666.666666666667;-48761.14055715748
0.10800000000000007;-25922505.0;-16987981.0;-3074986.0;-1464.8844342125724;-1133.5831014704056;-235.4693688952966;-57014.090461717555;-7166.666666666667;-49847.42379505089
0.11200000000000007;-32717213.0;-22464190.0;-3458315.0;-1698.676928775913;-1369.0524703657022;-244.53950884687015;-58448.12364083515;-8916.666666666666;-49531.45697416848
0.11600000000000008;-40455697.0;-28918557.0;-3798656.0;-1934.6209505381942;-1613.5919792125724;-248.42715756334064;-58986.0054405703;-10666.666666666666;-48319.338773903626
0.12000000000000008;-49138090.0;-36366633.0;-4089064.0;-2170.5981818046994;-1862.019136775913;-248.43156576228102;-58994.3078166263;-12666.666666666666;-46327.641149959636
0.12400000000000008;-58761128.0;-44808435.0;-4329655.0;-2405.759241597506;-2110.450702538194;-246.32264426650545;-58790.26494820164;-14583.333333333334;-44206.93161486831
0.12800000000000009;-69321042.0;-54235528.0;-4525600.0;-2639.9784462264893;-2356.7733468046995;-243.5866947928066;-58554.801157245834;-16500.0;-42054.801157245834
0.1320000000000001;-80814342.0;-64636968.0;-4684074.0;-2873.324919373014;-2600.360041597506;-241.03358662898336;-58336.618286631165;-18333.333333333332;-40003.28495329783
0.1360000000000001;-93236484.0;-76002542.0;-4811800.0;-3105.5351848356026;-2841.3936282264895;-238.83869114652452;-58052.56636564718;-20250.0;-37802.56636564718
0.1400000000000001;-106576888.0;-88323471.0;-4913013.0;-3335.1010166904202;-3080.232319373014;-236.56242446258875;-57391.45796370439;-22250.0;-35141.45796370439
0.1440000000000001;-120810955.0;-101590649.0;-4986239.0;-3558.516535149893;-3316.7947438356027;-232.7145498548175;-55853.879614868216;-24083.333333333332;-31770.546281534887
0.1480000000000001;-135894146.0;-115788686.0;-5022269.0;-3770.7975109617;-3549.5092936904202;-224.9648084594728;-53070.24395295173;-25916.666666666668;-27153.57728628506
0.1520000000000001;-151761400.0;-130886582.0;-5007564.0;-3966.8133628268256;-3774.474102149893;-211.64866081180708;-49003.96296628139;-27666.666666666668;-21337.296299614725
0.1560000000000001;-168330275.0;-146831073.0;-4930327.0;-4142.218402681211;-3986.1227629617;-192.69466086512557;-43851.25996359636;-29500.0;-14351.259963596363
0.16000000000000011;-185505716.0;-163546342.0;-4783933.0;-4293.860157618782;-4178.817423826826;-169.11009785438546;-37910.43873439275;-31083.333333333332;-6827.1054010594235
0.16400000000000012;-203185467.0;-180938052.0;-4567664.0;-4419.937635846429;-4347.927521681211;-142.342187937571;-31519.369556911668;-32583.333333333332;1063.9637764216623
0.16800000000000012;-221264912.0;-198899130.0;-4286337.0;-4519.860802481307;-4490.269709618782;-113.98041722764629;-24980.791658719456;-33833.333333333336;8852.541674613882
0.17200000000000013;-239641245.0;-217316130.0;-3948782.0;-4594.083083925858;-4604.250126846428;-85.40830163487772;-18555.570361137827;-35000.0;16444.429638862173
0.17600000000000013;-258219259.0;-236074763.0;-3566482.0;-4644.503279907375;-4689.658428481306;-57.783381444552106;-12605.04899537932;-35916.666666666664;23311.617671287342
0.18000000000000013;-276919059.0;-255064530.0;-3154729.0;-4674.94995569939;-4747.441809925858;-32.71481698151729;-7611.668948003626;-36583.333333333336;28971.66438532971
0.18400000000000014;-295681394.0;-274185156.0;-2733903.0;-4690.583526976186;-4780.1566269073755;-12.351157792014419;-3908.39281919898;-37083.333333333336;33174.94051413436
0.18800000000000014;-314467750.0;-293355187.0;-2326207.0;-4696.588747779652;-4792.50778469939;1.8973567232042114;-1501.3052008666818;-37250.0;35748.694799133315
0.19200000000000014;-333256947.0;-312517628.0;-1950122.0;-4697.299066817735;-4790.610427976186;10.166434196533373;-177.57975952076777;-37416.666666666664;37239.086907145895
0.19600000000000015;-352040357.0;-331639403.0;-1617544.0;-4695.852086706683;-4780.443993779652;13.590534961917001;361.7450277631633;-37333.333333333336;37695.0783610965
0.20000000000000015;-370816821.0;-350706816.0;-1333541.0;-4694.115911655003;-4766.853458817735;13.659109111053112;434.0437629198277;-37333.333333333336;37767.37709625316
0.20400000000000015;-389588389.0;-369719593.0;-1097228.0;-4692.8918264764625;-4753.194349706682;11.897634051679233;306.0212946352294;-37083.333333333336;37389.35462796857
0.20800000000000016;-408357590.0;-388684779.0;-903610.0;-4692.299897942226;-4741.296715655003;9.549659178540423;147.9821335590259;-36750.0;36897.982133559024
0.21200000000000016;-427126213.0;-407611767.0;-745823.0;-4692.15543982122;-4731.747056476463;7.376769534235791;36.114530251552424;-36250.0;36286.11453025155
0.21600000000000016;-445895108.0;-426509248.0;-616965.0;-4692.22369621421;-4724.370286942227;5.685352121006872;-17.064098247374204;-35666.666666666664;35649.60256841929
0.22000000000000017;-464664460.0;-445383987.0;-511121.0;-4692.337606318669;-4718.68493482122;4.483035607010606;-28.47752611478427;-34833.333333333336;34804.855807218555
0.22400000000000017;-483434135.0;-464240794.0;-423666.0;-4692.418635967831;-4714.201899214209;3.6466548955404505;-20.257412290447974;-33833.333333333336;33813.07592104289
0.22800000000000017;-502203942.0;-483083014.0;-351121.0;-4692.451632697264;-4710.555244318669;3.0384053508387296;-8.249182358440521;-32583.333333333332;32575.084150974893
0.23200000000000018;-520973748.0;-501913081.0;-290861.0;-4692.45105427434;-4707.51683896783;2.558183270565678;0.14460573106589436;-31166.666666666668;31166.811272397732
0.23600000000000018;-539743495.0;-520732915.0;-240833.0;-4692.436635755751;-4704.9586556972645;2.151782422924043;3.6046296472704853;-29583.333333333332;29586.937962980603
0.24000000000000019;-558513184.0;-539544142.0;-199353.0;-4692.422049474324;-4702.80687327434;1.7980585185896416;3.6465703567500896;-27833.333333333332;27836.97990369008
0.2440000000000002;-577282837.0;-558348177.0;-165007.0;-4692.412986462336;-4701.008814755751;1.491464281426488;2.265752996891024;-26083.333333333332;26085.59908633022
0.2480000000000002;-596052476.0;-577146246.0;-136591.0;-4692.4096299754;-4699.517350474324;1.2309510119875995;0.8391217340886215;-24083.333333333332;24084.17245506742
0.25200000000000017;-614822117.0;-595939391.0;-113085.0;-4692.40985133619;-4698.286399462337;1.0141144869367054;-0.05534019737751805;-22166.666666666668;22166.61132646929
0.25600000000000017;-633591763.0;-614728480.0;-93637.0;-4692.411413500388;-4697.2722849754;0.8360426392100635;-0.3905410496827244;-20166.666666666668;20166.276125616983
0.2600000000000002;-652361416.0;-633514224.0;-77539.0;-4692.412903127362;-4696.43624233619;0.690651835801873;-0.37240674350869085;-18333.333333333332;18332.960926589825
0.2640000000000002;-671131072.0;-652297206.0;-64210.0;-4692.413784949812;-4695.745590500388;0.5716573730260279;-0.22045561240702227;-16416.666666666668;16416.44621105426
0.2680000000000002;-689900729.0;-671077901.0;-53171.0;-4692.414082201137;-4695.173933127362;0.47379517754961853;-0.0743128312024055;-14500.0;14499.925687168798
0.2720000000000002;-708670386.0;-689856701.0;-44028.0;-4692.414031685386;-4694.700137949812;0.3928517486756391;0.01262893761122541;-12583.333333333334;12583.345962270945
0.2760000000000002;-727440042.0;-708633930.0;-36456.0;-4692.413863039065;-4694.307286201137;0.3256465157501225;0.04216158026792982;-10750.0;10750.042161580268
0.2800000000000002;-746209698.0;-727409856.0;-30186.0;-4692.413713555276;-4693.981639685387;0.26977864632135606;0.03737094721145695;-9000.0;9000.037370947211
0.2840000000000002;-764979353.0;-746184703.0;-24995.0;-4692.41363025822;-4693.711861039065;0.2233624837890602;0.020824264083785238;-7250.0;7250.020824264084
0.2880000000000002;-783749009.0;-764958656.0;-20697.0;-4692.413605933529;-4693.488498555276;0.1848972970565228;0.006081172841732041;-5583.333333333333;5583.339414506175
0.2920000000000002;-802518664.0;-783731870.0;-17139.0;-4692.413614629183;-4693.30360125822;0.15301832469140209;-0.0021739135718235048;-4083.3333333333335;4083.3311594197617
0.2960000000000002;-821288320.0;-802504472.0;-14192.0;-4692.413633090886;-4693.150582933528;0.12671230434534664;-0.004615425723386579;-2750.0;2749.9953845742766
0.3000000000000002;-840057975.0;-821276567.0;-11753.0;-4692.413648234288;-4693.023870629183;0.10485853829686675;-0.0037858505947951926;-1666.6666666666667;1666.662880816072
0.3040000000000002;-858827631.0;-840048243.0;-9732.0;-4692.413656141493;-4692.919012090886;0.0868878565979685;-0.001976801286218688;-750.0;749.9980231987138
0.3080000000000002;-877597286.0;-858819571.0;-8060.0;-4692.4136580781005;-4692.832124234288;0.07188809279432462;-0.0004841517693421338;-83.33333333333333;83.33284918156399
0.3120000000000002;-896366942.0;-877590611.0;-6675.0;-4692.413656880007;-4692.760236141494;0.05955306339365052;0.00029952343538752757;333.3333333333333;-333.3330338098979
0.3160000000000002;-915136597.0;-896361413.0;-5529.0;-4692.413654901239;-4692.7006830781;0.04927919809324521;0.0004946919034409802;666.6666666666666;-666.6661719747632
0.32000000000000023;-933906253.0;-915132018.0;-4579.0;-4692.4136533845385;-4692.651403880007;0.04085197876793245;0.0003791751623793971;750.0;-749.9996208248376
0.32400000000000023;-952675908.0;-933902460.0;-3793.0;-4692.413652644066;-4692.610551901239;0.03379951670012815;0.00018511809685151093;750.0;-749.9998148819031
0.32800000000000024;-971445564.0;-952672767.0;-3141.0;-4692.413652502098;-4692.576752384539;0.028036740472998645;3.549212124198675e-05;666.6666666666666;-666.6666311745454
0.33200000000000024;-990215219.0;-971442961.0;-2603.0;-4692.4136526538605;-4692.548715644066;0.023134141968512267;-3.794070835283492e-05;583.3333333333334;-583.3333712740417
0.33600000000000024;-1008984875.0;-990213063.0;-2156.0;-4692.413652863302;-4692.525581502097;0.01922084823672776;-5.236029210209381e-05;500.0;-500.0000523602921
0.34000000000000025;-1027754530.0;-1008983088.0;-1787.0;-4692.413653013851;-4692.506360653861;0.01586679055890272;-3.7637391869793646e-05;333.3333333333333;-333.3333709707252
0.34400000000000025;-1046524186.0;-1027753049.0;-1481.0;-4692.413653082162;-4692.490493863302;0.013157849450180947;-1.7077809388865717e-05;250.0;-250.0000170778094
0.34800000000000025;-1065293841.0;-1046522958.0;-1228.0;-4692.413653091024;-4692.4773360138515;0.010878931689148885;-2.21530171984341e-06;250.0;-250.00000221530172
0.35200000000000026;-1084063497.0;-1065292823.0;-1018.0;-4692.413653072866;-4692.466457082162;0.009029991138959303;4.539515430224128e-06;250.0;-249.99999546048457
0.35600000000000026;-1102833152.0;-1084062652.0;-845.0;-4692.413653050789;-4692.457427091023;0.00743901815803838;5.519041224033572e-06;166.66666666666666;-166.66666114762543
0.36000000000000026;-1121602808.0;-1102832451.0;-701.0;-4692.413653035928;-4692.449988072865;0.006192022075993009;3.715285856742412e-06;166.66666666666666;-166.6666629513808
0.36400000000000027;-1140372463.0;-1121602226.0;-582.0;-4692.413653029709;-4692.443796050789;0.005117014860843483;1.5547811926808208e-06;83.33333333333333;-83.33333177855214
0.36800000000000027;-1159142119.0;-1140371980.0;-483.0;-4692.413653029522;-4692.4386790359285;0.004257006219631876;4.6838977141305804e-08;166.66666666666666;-166.66666661982768
0.3720000000000003;-1177911774.0;-1159141717.0;-402.0;-4692.413653031512;-4692.434422029709;0.003483000186861318;-4.974936018697917e-07;83.33333333333333;-83.33333383082693
0.3760000000000003;-1196681372.0;-1177911440.0;-334.0;-4692.399257301825;-4692.430939029522;0.002923998010373907;3.598932421709833;83.33333333333333;-79.7344009116235
0.3800000000000003;-1215450540.0;-1196681152.0;-220.0;-4692.291783477697;-4692.428015031512;0.019297729686513776;26.86845603193433;0.0;26.86845603193433
0.3840000000000003;-1234218149.0;-1215450786.0;246.0;-4691.902103670637;-4692.408717301825;0.1275118241283053;97.41995176500495;0.0;97.41995176500495
0.3880000000000003;-1252981000.0;-1234219910.0;1761.0;-4690.712354143474;-4692.281205477697;0.4548248070595946;297.43738179081447;0.0;297.43738179081447
0.3920000000000003;-1271729413.0;-1252987215.0;6215.0;-4687.103167182782;-4691.826380670637;1.3812715271633351;902.2967401729147;83.33333333333333;818.9634068395814
0.3960000000000003;-1290439907.0;-1271748995.0;19582.0;-4677.623280237794;-4690.445109143474;4.183967960691916;2369.97173624718;83.33333333333333;2286.6384029138467
0.4000000000000003;-1309069684.0;-1290494039.0;54132.0;-4657.444033725927;-4686.261141182782;10.965536944988344;5044.811627966737;83.33333333333333;4961.478294633404
0.4040000000000003;-1327556028.0;-1309195221.0;125537.0;-4621.5858256003185;-4675.295604237794;23.24966151186709;8964.552031402036;83.33333333333333;8881.218698068702
0.4080000000000003;-1345819128.0;-1327803404.0;247376.0;-4565.7746847208255;-4652.045942725927;41.09728512560832;13952.785219873249;166.66666666666666;13786.118553206583
0.4120000000000003;-1363766497.0;-1346247198.0;428070.0;-4486.842001599515;-4610.948657600318;63.580982879492694;19733.170780327557;416.6666666666667;19316.50411366089
0.4160000000000003;-1381298154.0;-1364436668.0;670171.0;-4382.913972644621;-4547.367674720826;89.34302612131069;25982.007238723556;666.6666666666666;25315.340572056888
0.4200000000000003;-1398311374.0;-1382268766.0;970612.0;-4253.304920939685;-4458.024648599515;116.84699195489429;32402.262926234016;1166.6666666666667;31235.596259567348
0.4240000000000003;-1414704853.0;-1399633476.0;1322102.0;-4098.369489471859;-4341.177656644621;144.7231217049357;38733.857866956445;1833.3333333333333;36900.52453362311
0.4280000000000003;-1430384440.0;-1416419294.0;1714441.0;-3919.8965559970034;-4196.454534939685;171.8060084678259;44618.23336871396;2833.3333333333335;41784.900035380626
0.43200000000000033;-1445270736.0;-1432517888.0;2133448.0;-3721.573750305736;-4024.648526471859;196.4902344748557;49580.70142281679;4000.0;45580.70142281679
0.43600000000000033;-1459304354.0;-1447830521.0;2559785.0;-3508.4044248867003;-3828.1582919970033;216.65529669126727;53292.33135475897;5333.333333333333;47958.998021425636
0.44000000000000034;-1472446170.0;-1462276532.0;2972178.0;-3285.4537990443782;-3611.502995305736;230.90222441903552;55737.656460580525;6833.333333333333;48904.32312724719
0.44400000000000034;-1484674231.0;-1475798935.0;3352765.0;-3057.0151356355937;-3380.6007708867005;239.31586684232207;57109.66585219614;8500.0;48609.66585219614
0.44800000000000034;-1495979265.0;-1488364074.0;3689843.0;-2826.258363628278;-3141.2849040443784;242.93301740878496;57689.19300182893;10250.0;47439.19300182893
0.45200000000000035;-1506359729.0;-1499957481.0;3978216.0;-2595.1159976632935;-2898.3518866355935;243.15681100731535;57785.59149124612;12083.333333333334;45702.25815791279
0.45600000000000035;-1515817523.0;-1510578261.0;4218532.0;-2364.448393643034;-2655.195075628278;241.47595396498446;57666.901005064916;14000.0;43666.901005064916
0.46000000000000035;-1524355328.0;-1520233137.0;4415614.0;-2134.450991132947;-2413.7191216632937;239.14213002026008;57499.35062752172;15916.666666666666;41582.68396085506
0.46400000000000036;-1531975987.0;-1528931444.0;4576116.0;-1905.1646529367636;-2174.5769916430336;236.8989885100866;57321.58454904584;17833.333333333332;39488.2512157125
0.46800000000000036;-1538683435.0;-1536682156.0;4706169.0;-1676.8620482173435;-1937.678003132947;234.8786171961833;57075.65117985501;19666.666666666668;37408.98451318835
0.47200000000000036;-1544484861.0;-1543493353.0;4809918.0;-1450.3563712155267;-1702.7993859367637;232.76381171942012;56626.41925045421;21500.0;35126.41925045421
0.47600000000000037;-1549395676.0;-1549373495.0;4888634.0;-1227.7037803382902;-1470.0355742173435;229.8904650018169;55663.14771930911;23333.333333333332;32329.814385975777
0.48000000000000037;-1553447066.0;-1554334075.0;4938399.0;-1012.8473984664919;-1240.1451092155266;224.79248587723635;53714.09546794959;25166.666666666668;28547.428801282924
0.4840000000000004;-1556691201.0;-1558395485.0;4948419.0;-811.0337985526992;-1015.3526233382903;215.28724187179841;50453.39997844818;27000.0;23453.399978448175
0.4880000000000004;-1559200652.0;-1561595746.0;4904545.0;-627.362589450676;-800.0653814664919;199.9270179137926;45917.802275505805;28666.666666666668;17251.13560883914
0.4920000000000004;-1561063731.0;-1563996299.0;4795647.0;-465.7696256772442;-600.1383635526993;178.98859510202328;40398.24094335793;30333.333333333332;10064.907610024602
0.4960000000000004;-1562378494.0;-1565680898.0;4617167.0;-328.6907484327021;-421.149768450676;153.91832377343178;34269.71931113553;31916.666666666668;2353.052644468864
0.5000000000000003;-1563246663.0;-1566749823.0;4371329.0;-217.04232799881967;-267.2314446772442;126.5078432445421;27912.105108470605;33333.333333333336;-5421.228224862731
