Zeit[sec];Sollposition[°];Istposition[°];Positionsschleppfehler[°];Sollgeschwindigkeit[°/s];Istgeschwindigkeit[°/s];Geschwindigkeitsdifferenz[°/s];Sollbeschleunigung[°/s*s];Istbeschleunigung[°/s*s];Beschleunigungsdifferenz[°/s*s]
0.0;0.0;2.0;-2.0;-0.0;-0.000192;0.0;0.0;0.0;0.0
0.004;0.0;2.0;-2.0;-0.0;-0.000192;0.0;0.0;0.0;0.0
0.008;0.0;2.0;-2.0;-0.0;-0.000192;0.0;0.0;0.0;0.0
0.012;0.0;2.0;-2.0;-0.0;-0.000192;0.0;0.0;0.0;0.0
0.016;0.0;2.0;-2.0;-0.0;-0.000192;0.0;0.0;0.0;0.0
0.02;0.0;2.0;-2.0;-0.0;-0.000192;0.0;0.0;0.0;0.0
0.024;0.0;2.0;-2.0;-0.0;-0.000192;0.0;0.0;0.0;0.0
0.028;0.0;2.0;-2.0;-0.0;-0.000192;0.0;0.0;0.0;0.0
0.032;0.0;2.0;-2.0;-0.0;-0.000192;0.0;0.0;0.0;0.0
0.036000000000000004;0.0;2.0;-2.0;-0.0;-0.000192;0.0;0.0;0.0;0.0
0.04000000000000001;0.0;2.0;-2.0;-0.0;-0.000192;0.0;0.0;0.0;0.0
0.04400000000000001;0.0;2.0;-2.0;-0.0;-0.000192;0.0;0.0;0.0;0.0
0.048000000000000015;0.0;2.0;-2.0;-0.0;-0.000192;0.0;0.0;0.0;0.0
0.05200000000000002;-213.0;2.0;-2.0;-0.05333970777268776;-0.000192;0.0;-13.33492694317194;0.0;-13.33492694317194
0.05600000000000002;-2339.0;2.0;-215.0;-0.5315660789474963;-0.000192;-0.07378770777268777;-119.55659279370214;0.0;-119.55659279370214
0.060000000000000026;-59047.0;-293.0;-2046.0;-14.177025213820947;-0.07397970777268777;-0.6540023711748085;-3411.3647837183626;0.0;-3411.3647837183626
0.06400000000000003;-179211.0;-3204.0;-55843.0;-30.040850932682257;-0.7279820789474963;-18.809971134873454;-3965.9564297153274;0.0;-3965.9564297153274
0.06800000000000003;-426875.0;-81355.0;-97856.0;-61.91613968815097;-19.53795321382095;-19.897073718861307;-7968.822188867178;0.0;-7968.822188867178
0.07200000000000004;-845172.0;-239095.0;-187780.0;-104.57428042173196;-39.435026932682256;-40.50799275546871;-10664.535183395246;-83.33333333333333;-10581.201850061912
0.07600000000000004;-1434171.0;-558867.0;-286305.0;-147.24976382369024;-79.94301968815097;-52.11654073358099;-10668.870850489573;-333.3333333333333;-10335.53751715624
0.08000000000000004;-2194018.0;-1087105.0;-347066.0;-189.96164120520217;-132.05956042173196;-48.5085394019583;-10677.969345377982;-666.6666666666666;-10011.302678711314
0.08400000000000005;-3173983.0;-1809377.0;-384641.0;-244.9913458886244;-180.56809982369026;-46.3190773815119;-13757.42617085556;-1083.3333333333333;-12674.092837522227
0.08800000000000005;-4447722.0;-2716925.0;-457058.0;-318.4347097982835;-226.88717720520216;-61.98173668342227;-18360.840977414773;-1416.6666666666667;-16944.17431074811
0.09200000000000005;-6084304.0;-3872400.0;-575322.0;-409.14527678628536;-288.86891388862443;-84.79670790965906;-22677.641747000464;-1833.3333333333333;-20844.30841366713
0.09600000000000006;-8137150.0;-5367062.0;-717242.0;-513.2114702278367;-373.6656217982835;-104.33488698800187;-26016.54836038783;-2250.0;-23766.54836038783
0.10000000000000006;-10648767.0;-7279064.0;-858086.0;-627.904375507653;-478.00050878628537;-117.58721744155133;-28673.22631995407;-2916.6666666666665;-25756.5596532874
0.10400000000000006;-13651533.0;-9661414.0;-987353.0;-750.6914689503105;-595.5877262278367;-127.10253727981626;-30696.773360664396;-3750.0;-26946.773360664396
0.10800000000000007;-17168221.0;-12552175.0;-1099358.0;-879.1719358943564;-722.690263507653;-133.53957344265757;-32120.116736011452;-4750.0;-27370.116736011452
0.11200000000000007;-21215479.0;-15977094.0;-1191127.0;-1011.8145363586871;-856.2298369503105;-137.29029094404586;-33160.65011608268;-5666.666666666667;-27493.98344941601
0.11600000000000008;-25805557.0;-19951174.0;-1264305.0;-1147.5192500811738;-993.5201278943564;-139.6676884643307;-33926.17843062169;-6666.666666666667;-27259.511763955023
0.12000000000000008;-30946302.0;-24483925.0;-1321632.0;-1285.1862173333345;-1133.187816358687;-141.20810572248683;-34416.74181304018;-7750.0;-26666.741813040175
0.12400000000000008;-36641601.0;-29581508.0;-1364794.0;-1423.8246992765685;-1274.395922081174;-141.8105192521607;-34659.62048580849;-8916.666666666666;-25742.95381914182
0.12800000000000009;-42892531.0;-35246333.0;-1395268.0;-1562.7325196801487;-1416.2064413333346;-141.56398594323377;-34726.95510089505;-10000.0;-24726.955100895055
0.1320000000000001;-49698697.0;-41477414.0;-1415117.0;-1701.5413673436308;-1557.7704272765684;-140.81332440358028;-34702.21191587052;-11083.333333333334;-23618.87858253719
0.1360000000000001;-57059264.0;-48271749.0;-1426948.0;-1840.1415671375544;-1698.5837516801487;-139.94462366348216;-34650.0499484809;-12166.666666666666;-22483.383281814233
0.1400000000000001;-64973525.0;-55625862.0;-1433402.0;-1978.5653274602635;-1838.5283753436308;-139.21978379392363;-34605.94008067727;-13250.0;-21355.940080677272
0.1440000000000001;-73441083.0;-63536854.0;-1436671.0;-2116.889403251066;-1977.7481591375545;-138.73758432270915;-34581.01894770067;-14333.333333333334;-20247.685614367336
0.1480000000000001;-82461803.0;-72002796.0;-1438287.0;-2255.179863915641;-2116.4857434602636;-138.47921179080276;-34572.61516614369;-15416.666666666666;-19155.948499477025
0.1520000000000001;-92035700.0;-81022655.0;-1439148.0;-2393.47405443188;-2254.9649552510664;-138.37311666457435;-34573.547629059816;-16500.0;-18073.547629059816
0.1560000000000001;-102162837.0;-90596007.0;-1439693.0;-2531.7841981869365;-2393.3380719156407;-138.3465105162395;-34577.53593876407;-17583.333333333332;-16994.20260543074
0.16000000000000011;-112843271.0;-100722745.0;-1440092.0;-2670.1082819814633;-2531.6845824318802;-138.348447755056;-34581.0209486317;-18666.666666666668;-15914.354281965036
0.16400000000000012;-124077030.0;-111402877.0;-1440394.0;-2808.4397093633706;-2670.0330301869362;-138.35307579452729;-34582.85684547684;-19833.333333333332;-14749.523512143507
0.16800000000000012;-135864122.0;-122636421.0;-1440609.0;-2946.7727905959023;-2808.3861059814635;-138.3520673819071;-34583.27030813291;-20916.666666666668;-13666.603641466241
0.17200000000000013;-148202529.0;-134423373.0;-1440749.0;-3084.60162211268;-2946.7381733633706;-138.3465212325318;-34457.20787919447;-22000.0;-12457.20787919447
0.17600000000000013;-161084533.0;-146763711.0;-1438818.0;-3220.5008962373286;-3085.0846945959024;-137.64345551677752;-33974.8185311621;-23000.0;-10974.8185311621
0.18000000000000013;-174496804.0;-159654623.0;-1429910.0;-3353.067471548146;-3222.72815011268;-135.0441061246488;-33141.64382770434;-24083.333333333332;-9058.31049437101
0.18400000000000014;-188420771.0;-173085712.0;-1411092.0;-3480.9917428568915;-3357.7722562373287;-130.7600473108173;-31981.067827186394;-25166.666666666668;-6814.401160519726
0.18800000000000014;-202828555.0;-187039841.0;-1380930.0;-3601.945642377752;-3488.532303548146;-125.02871930874562;-30238.474880215108;-26250.0;-3988.474880215108
0.19200000000000014;-217682259.0;-201494085.0;-1334470.0;-3713.4259481963327;-3613.5610228568917;-116.49373952086034;-27870.076454645186;-27250.0;-620.0764546451865
0.19600000000000015;-232937961.0;-216414304.0;-1267955.0;-3813.92519259322;-3730.054762377752;-105.09486581858073;-25124.811099221803;-28166.666666666668;3041.855567444866
0.20000000000000015;-248547591.0;-231754902.0;-1183059.0;-3902.4073563040342;-3835.1496281963327;-92.34922839688716;-22120.540927703587;-28916.666666666668;6796.125738963081
0.20400000000000015;-264458639.0;-247464897.0;-1082694.0;-3977.761764300644;-3927.49885659322;-78.84712371081423;-18838.601999152386;-29500.0;10661.398000847612
0.20800000000000016;-280616346.0;-263490280.0;-968359.0;-4039.426640979756;-4006.345980304034;-64.37824799660984;-15416.21916977806;-30000.0;14583.78083022194
0.21200000000000016;-296968477.0;-279773176.0;-843170.0;-4088.0326407926964;-4070.724228300644;-49.64673267911212;-12151.499953235088;-30250.0;18098.50004676491
0.21600000000000016;-313466640.0;-296254659.0;-713818.0;-4124.540502072888;-4120.370960979756;-36.18820781294016;-9126.965320047817;-30416.666666666668;21289.70134661885
0.22000000000000017;-330067071.0;-312880895.0;-585745.0;-4150.107528250002;-4156.559168792696;-24.212853280191666;-6391.756544278678;-30333.333333333332;23941.576789054656
0.22400000000000017;-346735385.0;-329603983.0;-463088.0;-4167.078434652263;-4180.772022072888;-13.791954177114349;-4242.72660056522;-30166.666666666668;25923.940066101448
0.22800000000000017;-363447524.0;-346382238.0;-353147.0;-4178.034328364118;-4194.563976250002;-6.4165704022607315;-2738.9734279636286;-29666.666666666668;26927.69323870304
0.23200000000000018;-380185752.0;-363186160.0;-261364.0;-4184.556850374717;-4200.980546652263;-2.144725711854335;-1630.6305026498649;-28916.666666666668;27286.036164016805
0.23600000000000018;-396936662.0;-379998661.0;-187091.0;-4187.727362695955;-4203.125272364117;0.6076859894001245;-792.6280803094414;-28083.333333333332;27290.70525302389
0.24000000000000019;-413691357.0;-396808731.0;-127931.0;-4188.673494531758;-4202.517586374717;2.508847678762322;-236.5329589506473;-27166.666666666668;26930.13370771602
0.2440000000000002;-430445194.0;-413608765.0;-82592.0;-4188.459135384469;-4200.008738695955;3.406412164197718;53.5897868221582;-26166.666666666668;26220.256453488826
0.2480000000000002;-447196677.0;-430395174.0;-50020.0;-4187.87054547375;-4196.602326531757;3.341271147288353;147.14747767970948;-25083.333333333332;25230.48081101304
0.25200000000000017;-463946052.0;-447168218.0;-28459.0;-4187.343522081835;-4193.261055384469;2.6584459107189105;131.75584797886586;-23916.666666666668;24048.422514645536
0.25600000000000017;-480694162.0;-463930628.0;-15424.0;-4187.027308918324;-4190.60260947375;1.7783833919156677;79.05329087770951;-22833.333333333332;22912.38662421104
0.2600000000000002;-497441781.0;-480685924.0;-8238.0;-4186.904482186167;-4188.824226081834;1.0060691635108014;30.706683039170457;-21666.666666666668;21697.37334970584
0.2640000000000002;-514189373.0;-497437196.0;-4585.0;-4186.897891581839;-4187.818156918323;0.4735147321562181;1.647651082066659;-20583.333333333332;20584.9809844154
0.2680000000000002;-530937115.0;-514186574.0;-2799.0;-4186.935188349425;-4187.344642186167;0.17804660432830133;-9.324191896439515;-19416.666666666668;19407.34247477023
0.2720000000000002;-547685006.0;-530935240.0;-1875.0;-4186.972749228029;-4187.166595581839;0.051407232414021564;-9.390219651095322;-18333.333333333332;18323.94311368224
0.2760000000000002;-564432985.0;-547683700.0;-1306.0;-4186.994418010227;-4187.115188349425;0.017063121395949565;-5.417195549398457;-17250.0;17244.5828044506
0.2800000000000002;-581180988.0;-564432092.0;-893.0;-4187.000667532981;-4187.098125228029;0.017979217802349012;-1.5623806887106184;-16166.666666666666;16165.104285977955
0.2840000000000002;-597928981.0;-581180412.0;-576.0;-4186.998058920074;-4187.080146010227;0.024182477244721667;0.6521532268379815;-15083.333333333334;15083.985486560172
0.2880000000000002;-614676953.0;-597928635.0;-346.0;-4186.992830562864;-4187.055963532982;0.024688612907993956;1.3070893025997066;-14000.0;14001.3070893026
0.2920000000000002;-631424909.0;-614676760.0;-193.0;-4186.988563578515;-4187.031274920074;0.019916357210604474;1.0667460871900403;-12916.666666666666;12917.733412753856
0.2960000000000002;-648172855.0;-631424805.0;-104.0;-4186.986338776916;-4187.011358562863;0.012810984348107013;0.5562003996146814;-11833.333333333334;11833.889533732949
0.3000000000000002;-664920799.0;-648172799.0;-56.0;-4186.985800022713;-4186.998547578515;0.006832801598648075;0.13468855081555375;-10750.0;10750.134688550816
0.3040000000000002;-681668744.0;-664920765.0;-34.0;-4186.986150320424;-4186.9917147769165;0.002650754203386896;-0.08757442765272572;-9750.0;9749.912425572347
0.3080000000000002;-698416692.0;-681668721.0;-23.0;-4186.986725642588;-4186.989064022713;0.0007057022894514375;-0.1438305409919849;-8666.666666666666;8666.522836125674
0.3120000000000002;-715164641.0;-698416674.0;-18.0;-4186.987173484426;-4186.988358320424;-9.532216427032836e-05;-0.11196045966244128;-7583.333333333333;7583.221372873671
0.3160000000000002;-731912592.0;-715164627.0;-14.0;-4186.987402978549;-4186.988453642588;-6.384183870977722e-05;-0.05737353058066219;-6416.666666666667;6416.609293136086
0.32000000000000023;-748660542.0;-731912581.0;-11.0;-4186.987463019732;-4186.988517484427;5.850587785971584e-05;-0.015010295783213223;-5416.666666666667;5416.651656370884
0.32400000000000023;-765408493.0;-748660534.0;-8.0;-4186.987439157837;-4186.988458978549;0.0002279588170495117;0.005965473746982752;-4500.0;4500.005965473747
0.32800000000000024;-782156443.0;-765408486.0;-7.0;-4186.9873981957435;-4186.988231019732;0.00011986189474555431;0.010240523351967568;-3666.6666666666665;3666.6769071900185
0.33200000000000024;-798904394.0;-782156438.0;-5.0;-4186.98737342622;-4186.988111157837;0.00023296209383261157;0.006192380851643975;-2833.3333333333335;2833.339525714185
0.33600000000000024;-815652344.0;-798904389.0;-5.0;-4186.987371822497;-4186.987878195743;2.47695234065759e-05;0.0004009307303931564;-2000.0;2000.0004009307304
0.34000000000000025;-832400294.0;-815652340.0;-4.0;-4186.987387171795;-4186.98785342622;9.760372267919593e-05;-0.0038373243569367332;-1416.6666666666667;1416.6628293423098
0.34400000000000025;-849148245.0;-832400291.0;-3.0;-4186.98741044724;-4186.987755822497;8.065070232987637e-05;-0.005818861382067553;-916.6666666666666;916.6608478052846
0.34800000000000025;-865896195.0;-849148241.0;-4.0;-4186.987435033153;-4186.987675171795;-0.00011927544528589351;-0.006146478199298144;-583.3333333333334;583.3271868551341
0.35200000000000026;-882644146.0;-865896192.0;-3.0;-4186.9874578604695;-4186.98779444724;7.141408696043072e-05;-0.005706829142582137;-250.0;249.99429317085742
0.35600000000000026;-899392096.0;-882644142.0;-4.0;-4186.987478472331;-4186.987723033153;-0.00011882731632795185;-0.005152965286470135;-83.33333333333333;83.32818036804686
0.36000000000000026;-916140047.0;-899392093.0;-3.0;-4186.987497630819;-4186.987841860469;7.538813861174276e-05;-0.00478962215311185;0.0;-0.00478962215311185
0.36400000000000027;-932887998.0;-916140044.0;-3.0;-4186.98751628543;-4186.987766472331;-1.91584886124474e-05;-0.0046636525894427905;83.33333333333333;-83.33799698592277
0.36800000000000027;-949635949.0;-932887995.0;-3.0;-4186.987535088694;-4186.987785630819;-1.8654610357771162e-05;-0.0047008161345729604;83.33333333333333;-83.3380341494679
0.3720000000000003;-966383900.0;-949635946.0;-3.0;-4186.987554320394;-4186.98780428543;-1.8803264538291842e-05;-0.004807925051864004;166.66666666666666;-166.67147459171852
0.3760000000000003;-983131851.0;-966383897.0;-3.0;-4186.987574001731;-4186.987823088694;-1.9231700207456015e-05;-0.004920334276903304;83.33333333333333;-83.33825366761023
0.3800000000000003;-999879802.0;-983131848.0;-3.0;-4186.987594043192;-4186.9878423203945;-1.9681337107613217e-05;-0.0050103651574318064;83.33333333333333;-83.33834369849076
0.3840000000000003;-1016627754.0;-999879799.0;-3.0;-4186.987614345119;-4186.987862001732;-2.0041460629727226e-05;-0.005075481794847292;0.0;-0.005075481794847292
0.3880000000000003;-1033375705.0;-1016627750.0;-4.0;-4186.987634843346;-4186.987882043192;-0.00011630192693701247;-0.0051245567647129064;0.0;-0.0051245567647129064
0.3920000000000003;-1050123656.0;-1033375701.0;-4.0;-4186.987655512213;-4186.987998345119;-2.0498227058851626e-05;-0.005167216613699566;0.0;-0.005167216613699566
0.3960000000000003;-1066871608.0;-1050123653.0;-3.0;-4186.987676351437;-4186.988018843346;7.533113330282504e-05;-0.0052098059768468374;0.0;-0.0052098059768468374
0.4000000000000003;-1083619559.0;-1066871604.0;-4.0;-4186.987697370848;-4186.987943512213;-0.00011683922366501065;-0.0052548527946783;0.0;-0.0052548527946783
0.4040000000000003;-1100367511.0;-1083619556.0;-3.0;-4186.987718579837;-4186.988060351437;7.49805885789101e-05;-0.005302247245708713;83.33333333333333;-83.33863558057904
0.4080000000000003;-1117115463.0;-1100367507.0;-4.0;-4186.987739984216;-4186.987985370848;-0.00011720898874045815;-0.005351094841898885;83.33333333333333;-83.33868442817523
0.4120000000000003;-1133863415.0;-1117115459.0;-4.0;-4186.987761585585;-4186.988102579837;-2.140437936759554e-05;-0.005400342161010485;83.33333333333333;-83.33873367549434
0.4160000000000003;-1150611367.0;-1133863411.0;-4.0;-4186.987783383474;-4186.988123984216;-2.160136864404194e-05;-0.005449472382679232;0.0;-0.005449472382679232
0.4200000000000003;-1167359319.0;-1150611363.0;-4.0;-4186.987805375778;-4186.988145585585;-2.179788953071693e-05;-0.005498076006915653;0.0;-0.005498076006915653
0.4240000000000003;-1184107271.0;-1167359315.0;-4.0;-4186.987827561494;-4186.988167383474;-2.1992304027662612e-05;-0.00554642883798806;0.0;-0.00554642883798806
0.4280000000000003;-1200855223.0;-1184107267.0;-4.0;-4186.987849938609;-4186.988189375778;-2.218571535195224e-05;-0.005594278718490386;0.0;-0.005594278718490386
0.43200000000000033;-1217603175.0;-1200855219.0;-4.0;-4186.987872507124;-4186.988211561494;-2.2377114873961546e-05;-0.005642128826366388;0.0;-0.005642128826366388
0.43600000000000033;-1234351128.0;-1217603171.0;-4.0;-4186.987895266474;-4186.988233938609;-2.2568515305465553e-05;-0.005689837507816264;0.0;-0.005689837507816264
0.44000000000000034;-1251099080.0;-1234351124.0;-4.0;-4186.98791821603;-4186.988256507124;-2.2759350031265058e-05;-0.005737389074056409;0.0;-0.005737389074056409
0.44400000000000034;-1267847033.0;-1251099077.0;-3.0;-4186.98794135548;-4186.988279266474;7.305044346139766e-05;-0.005784862423752202;0.0;-0.005784862423752202
0.44800000000000034;-1284594985.0;-1267847029.0;-4.0;-4186.987964684383;-4186.98820621603;-0.00011913944945263211;-0.00583222572458908;0.0;-0.00583222572458908
0.45200000000000035;-1301342938.0;-1284594982.0;-3.0;-4186.987988201796;-4186.98832535548;7.267109685926698e-05;-0.005879353238924523;0.0;-0.005879353238924523
0.45600000000000035;-1318090891.0;-1301342935.0;-3.0;-4186.988011907468;-4186.988252684383;-2.351741295569809e-05;-0.005926417998125544;0.0;-0.005926417998125544
0.46000000000000035;-1334838844.0;-1318090888.0;-3.0;-4186.988035800709;-4186.988276201796;-2.3705671992502175e-05;-0.005973310408080579;0.0;-0.005973310408080579
0.46400000000000036;-1351586797.0;-1334838841.0;-3.0;-4186.988059881204;-4186.988299907468;-2.3893241632322315e-05;-0.0060201236919965595;0.0;-0.0060201236919965595
0.46800000000000036;-1368334750.0;-1351586794.0;-3.0;-4186.988084147949;-4186.98832380071;-2.4080494767986238e-05;-0.006066686182748526;0.0;-0.006066686182748526
0.47200000000000036;-1385082703.0;-1368334747.0;-3.0;-4186.988108601131;-4186.988347881204;-2.4266744730994105e-05;-0.0061132955124776345;0.0;-0.0061132955124776345
0.47600000000000037;-1401830657.0;-1385082700.0;-3.0;-4186.988133238992;-4186.988372147949;-2.4453182049910538e-05;-0.006159465328892111;0.0;-0.006159465328892111
0.48000000000000037;-1418578610.0;-1401830653.0;-4.0;-4186.988158061595;-4186.988396601131;-0.00012063786107319174;-0.006205650606716517;0.0;-0.006205650606716517
0.4840000000000004;-1435326563.0;-1418578607.0;-3.0;-4186.9881830683735;-4186.988517238992;7.117739733075723e-05;-0.006251694685488474;0.0;-0.006251694685488474
0.4880000000000004;-1452074517.0;-1435326560.0;-3.0;-4186.988208258638;-4186.988446061595;-2.5006778741953894e-05;-0.0062975661876407685;0.0;-0.0062975661876407685
0.4920000000000004;-1468822471.0;-1452074513.0;-4.0;-4186.988233631949;-4186.988471068374;-0.00012119026450818637;-0.006343327640934149;0.0;-0.006343327640934149
0.4960000000000004;-1485570425.0;-1468822467.0;-4.0;-4186.988259187362;-4186.988592258638;-2.5373310563736595e-05;-0.0063888533077260945;0.0;-0.0063888533077260945
0.5000000000000003;-1502318379.0;-1485570421.0;-4.0;-4186.988284924754;-4186.988617631949;-2.5555413230904378e-05;-0.00643434805169818;0.0;-0.00643434805169818
0.5040000000000003;-1519066333.0;-1502318375.0;-4.0;-4186.988310842805;-4186.988643187362;-2.573739220679272e-05;-0.006479512649093522;0.0;-0.006479512649093522
0.5080000000000003;-1535814287.0;-1519066329.0;-4.0;-4186.988336941387;-4186.988668924754;-2.5918050596374087e-05;-0.006524645641547977;0.0;-0.006524645641547977
