Zeit[sec];Sollposition[°];Istposition[°];Positionsschleppfehler[°];Sollgeschwindigkeit[°/s];Istgeschwindigkeit[°/s];Geschwindigkeitsdifferenz[°/s];Sollbeschleunigung[°/s*s];Istbeschleunigung[°/s*s];Beschleunigungsdifferenz[°/s*s]
0.0;-9979199999.0;-9979199995.0;-4.0;0.0;-0.00023999999999999998;0.0;0.0;0.0;0.0
0.004;-9979199999.0;-9979199995.0;-4.0;0.0;-0.00023999999999999998;0.0;0.0;0.0;0.0
0.008;-9979199999.0;-9979199995.0;-4.0;0.0;-0.00023999999999999998;0.0;0.0;0.0;0.0
0.012;-9979199999.0;-9979199995.0;-4.0;0.0;-0.00023999999999999998;0.0;0.0;0.0;0.0
0.016;-9979199999.0;-9979199995.0;-4.0;0.0;-0.00023999999999999998;0.0;0.0;0.0;0.0
0.02;-9979199999.0;-9979199995.0;-4.0;0.0;-0.00023999999999999998;0.0;0.0;0.0;0.0
0.024;-9979199999.0;-9979199995.0;-4.0;0.0;-0.00023999999999999998;0.0;0.0;0.0;0.0
0.028;-9979199999.0;-9979199995.0;-4.0;0.0;-0.00023999999999999998;0.0;0.0;0.0;0.0
0.032;-9979199999.0;-9979199995.0;-4.0;0.0;-0.00023999999999999998;0.0;0.0;0.0;0.0
0.036000000000000004;-9979199999.0;-9979199995.0;-4.0;0.0;-0.00023999999999999998;0.0;0.0;0.0;0.0
0.04000000000000001;-9979199999.0;-9979199995.0;-4.0;0.0;-0.00023999999999999998;0.0;0.0;0.0;0.0
0.04400000000000001;-9979199999.0;-9979199995.0;-4.0;0.0;-0.00023999999999999998;0.0;0.0;0.0;0.0
0.048000000000000015;-9979199999.0;-9979199995.0;-4.0;0.0;-0.00023999999999999998;0.0;0.0;0.0;0.0
0.05200000000000002;-9979199999.0;-9979199995.0;-4.0;0.0;-0.00023999999999999998;0.0;0.0;0.0;0.0
0.05600000000000002;-9979199999.0;-9979199995.0;-4.0;0.0;-0.00023999999999999998;0.0;0.0;0.0;0.0
0.060000000000000026;-9979201563.0;-9979199995.0;-4.0;-0.39080999278779943;-0.00023999999999999998;0.0;-97.70249819694986;0.0;-97.70249819694986
0.06400000000000003;-9979365912.0;-9979199995.0;-1568.0;-41.08742341331975;-0.00023999999999999998;-0.4846499927877994;-10174.153355132987;0.0;-10174.153355132987
0.06800000000000003;-9979831963.0;-9979201934.0;-163978.0;-116.51272138740248;-0.48488999278779943;-50.441213420531945;-18856.324493520682;0.0;-18856.324493520682
0.07200000000000004;-9980853173.0;-9979405638.0;-426325.0;-255.3023629702694;-50.926103413319744;-91.16611797408274;-34697.41039571673;-83.33333333333333;-34614.077062383396
0.07600000000000004;-9982551481.0;-9979974006.0;-879167.0;-424.5768992261608;-142.09222138740247;-165.9601615828669;-42318.634063972844;-500.0;-41818.634063972844
0.08000000000000004;-9985067167.0;-9981206215.0;-1345266.0;-628.9216506081435;-308.0523829702694;-197.2404762558914;-51086.18784549569;-1250.0;-49836.18784549569
0.08400000000000005;-9988584222.0;-9983227386.0;-1839781.0;-879.2636297218916;-505.2928592261608;-234.0156513819827;-62585.49477843701;-2500.0;-60085.49477843701
0.08800000000000005;-9993283352.0;-9986184620.0;-2399602.0;-1174.7824263821294;-739.3085106081435;-283.931239113748;-73879.69916505946;-4000.0;-69879.69916505946
0.09200000000000005;-9999384348.0;-9990277578.0;-3005774.0;-1525.2489641948232;-1023.2397497218915;-331.88911666023796;-87616.63445317345;-5916.666666666667;-81699.96778650678
0.09600000000000006;-10007075351.0;-9995698093.0;-3686255.0;-1922.7505779021176;-1355.1288663821294;-391.29539781269364;-99375.4034268236;-8083.333333333333;-91292.07009349026
0.10000000000000006;-10016418473.0;-10002683790.0;-4391561.0;-2335.7805704173925;-1746.424264194823;-439.8199737072946;-103257.49812881873;-10750.0;-92507.49812881873
0.10400000000000006;-10027403565.0;-10011428766.0;-4989707.0;-2746.2726621298325;-2186.2442379021177;-448.9187525152747;-102623.02292811;-13750.0;-88873.02292811
0.10800000000000007;-10039984065.0;-10021969417.0;-5434148.0;-3145.124880878418;-2635.1629904173924;-437.15855171243993;-99713.05468714639;-17166.666666666668;-82546.38802047972
0.11200000000000007;-10054027510.0;-10034258703.0;-5725362.0;-3510.861186335953;-3072.3215421298323;-416.3250587485859;-91434.07636438371;-20583.333333333332;-70850.74303105038
0.11600000000000008;-10069326365.0;-10048213289.0;-5814221.0;-3824.713573631814;-3488.646600878418;-371.06784545753453;-78463.09682396532;-24000.0;-54463.096823965316
0.12000000000000008;-10085681288.0;-10063652146.0;-5674219.0;-4088.7305584630562;-3859.7144463359527;-305.452267295861;-66004.24620781053;-27083.333333333332;-38920.912874477195
0.12400000000000008;-10102948792.0;-10080312812.0;-5368476.0;-4316.875644089014;-4165.166713631814;-245.6724048312426;-57036.27140648939;-29916.666666666668;-27119.604739822724
0.12800000000000009;-10120971449.0;-10097956168.0;-4992624.0;-4505.664261414969;-4410.839118463056;-205.59396562595703;-47197.15433148872;-32333.333333333332;-14863.820998155386
0.1320000000000001;-10139545464.0;-10116421900.0;-4549549.0;-4643.503466146246;-4616.433084089013;-162.20411732595494;-34459.80118281932;-34416.666666666664;-43.134516152655124
0.1360000000000001;-10158480991.0;-10135536448.0;-4009016.0;-4733.881479350989;-4778.637201414968;-105.40722473127789;-22594.503301185796;-36000.0;13405.496698814204
0.1400000000000001;-10177626708.0;-10155072625.0;-3408366.0;-4786.429046759534;-4884.044426146246;-54.339013204742514;-13136.89185213616;-37250.0;24113.10814786384
0.1440000000000001;-10196867865.0;-10174826158.0;-2800550.0;-4810.289038069094;-4938.383439350989;-16.078607408545395;-5964.997827390107;-38000.0;32035.002172609893
0.1480000000000001;-10216130911.0;-10194644006.0;-2223859.0;-4815.761346101457;-4954.462046759534;10.741468690440342;-1368.0770080907223;-38500.0;37131.922991909276
0.1520000000000001;-10235380299.0;-10214418888.0;-1712023.0;-4812.346772599157;-4943.720578069094;25.237851967636743;853.643375575075;-38583.333333333336;39436.97670890841
0.1560000000000001;-10254607116.0;-10234092818.0;-1287481.0;-4806.703810209401;-4918.482726101457;28.88709350230056;1410.7405974389167;-38583.333333333336;39994.073930772254
0.16000000000000011;-10273815991.0;-10253651200.0;-955916.0;-4802.218493643636;-4889.5956325991565;25.536862389755697;1121.3291414412652;-38416.666666666664;39537.99580810793
0.16400000000000012;-10293015198.0;-10273107435.0;-708556.0;-4799.801622635742;-4864.058770209401;19.326916565764805;604.217751973465;-38250.0;38854.21775197347
0.16800000000000012;-10312211415.0;-10292486362.0;-528836.0;-4799.054047789166;-4844.731853643636;13.200071007893712;186.89371164396107;-38000.0;38186.89371164396
0.17200000000000013;-10331408234.0;-10311812489.0;-398926.0;-4799.204443374776;-4831.531782635742;8.542174846576017;-37.59889640241454;-37833.333333333336;37795.73443693092
0.17600000000000013;-10350606719.0;-10331104447.0;-303787.0;-4799.62109044934;-4822.989607789166;5.557944414390477;-104.16176864100635;-37750.0;37645.838231359
0.18000000000000013;-10369806575.0;-10350374173.0;-232546.0;-4799.963666705219;-4817.431663374776;3.85781292543561;-85.64406396976665;-37666.666666666664;37581.022602696896
0.18400000000000014;-10389007111.0;-10369628468.0;-178107.0;-4800.133852377142;-4813.57385044934;2.923763744121061;-42.546417980702245;-37666.666666666664;37624.12024868596
0.18800000000000014;-10408207769.0;-10388871068.0;-136043.0;-4800.1641774392165;-4810.650086705219;2.3536543280770275;-7.581265518638247;-37583.333333333336;37575.7520678147
0.19200000000000014;-10427408267.0;-10408104253.0;-103516.0;-4800.124496032076;-4808.296432377142;1.9212949379252677;9.920351785012826;-37583.333333333336;37593.25368511835
0.19600000000000015;-10446608553.0;-10427329753.0;-78514.0;-4800.071156990952;-4806.375137439217;1.5398014071406578;13.334760281168201;-37500.0;37513.33476028117
0.20000000000000015;-10465808684.0;-10446549094.0;-59459.0;-4800.032543154633;-4804.835336032076;1.1966390411243992;9.653459079800086;-37416.666666666664;37426.32012574647
0.20400000000000015;-10485008743.0;-10465763648.0;-45036.0;-4800.014497336782;-4803.638696990952;0.9039938363193869;4.511454462544862;-37083.333333333336;37087.84478779588
0.20800000000000016;-10504208790.0;-10484974586.0;-34157.0;-4800.011431771085;-4802.734703154632;0.670785817849719;0.7663914243494219;-36250.0;36250.766391424346
0.21200000000000016;-10523408852.0;-10504182841.0;-25949.0;-4800.015302381588;-4802.063917336783;0.4955455656972845;-0.9676526258317608;-35000.0;34999.03234737417
0.21600000000000016;-10542608933.0;-10523389114.0;-19738.0;-4800.020192330871;-4801.568371771085;0.3687893894966692;-1.2224873207742348;-33416.666666666664;33415.44417934589
0.22000000000000017;-10561809028.0;-10542593912.0;-15021.0;-4800.02333341554;-4801.199582381589;0.27813005071766383;-0.7852711671603174;-31583.333333333332;31582.54806216617
0.22400000000000017;-10581009126.0;-10561797597.0;-11431.0;-4800.024294723174;-4800.921452330871;0.21225891533140384;-0.2403269083970372;-29416.666666666668;29416.42633975827
0.22800000000000017;-10600209222.0;-10581000433.0;-8693.0;-4800.023749566838;-4800.70919341554;0.1633186923663743;0.1362890839118336;-26833.333333333332;26833.469622417244
0.23200000000000018;-10619409313.0;-10600202616.0;-6606.0;-4800.022552157963;-4800.545874723173;0.12576515633554664;0.299352218689819;-23750.0;23750.299352218688
0.23600000000000018;-10638609399.0;-10619404296.0;-5017.0;-4800.021297319837;-4800.420109566838;0.09653740887461026;0.31370953161058424;-20416.666666666668;20416.980376198277
0.24000000000000019;-10657809481.0;-10638605590.0;-3809.0;-4800.020244906882;-4800.323572157963;0.07373483812625636;0.26310323869438434;-16916.666666666668;16916.929769905364
0.2440000000000002;-10677009559.0;-10657806589.0;-2892.0;-4800.019419750844;-4800.249837319837;0.05607241295456333;0.20628900961128238;-13583.333333333334;13583.539622342945
0.2480000000000002;-10696209635.0;-10677007364.0;-2195.0;-4800.018743039931;-4800.193764906882;0.04264515603881591;0.16917772813940246;-10333.333333333334;10333.502511061473
0.25200000000000017;-10715409709.0;-10696207968.0;-1667.0;-4800.018125218282;-4800.1511197508435;0.03235671091260883;0.1544554122574482;-7500.0;7500.154455412257
0.25600000000000017;-10734609780.0;-10715408443.0;-1266.0;-4800.01750730834;-4800.118763039931;0.02467782164876553;0.15447748546648654;-5083.333333333333;5083.4878108187995
0.2600000000000002;-10753809848.0;-10734608819.0;-961.0;-4800.016865564425;-4800.094085218282;0.01891790994159237;0.1604359788416332;-3166.6666666666665;3166.827102645508
0.2640000000000002;-10773009914.0;-10753809119.0;-729.0;-4800.01619958835;-4800.0751673083405;0.014561743915692205;0.16649401868562563;-1583.3333333333333;1583.4998273520189
0.2680000000000002;-10792209977.0;-10773009361.0;-553.0;-4800.015518496248;-4800.060605564425;0.011225976074456412;0.17027302556016366;-333.3333333333333;333.5036063588935
0.2720000000000002;-10811410037.0;-10792209558.0;-419.0;-4800.014831665087;-4800.04937958835;0.008721092102859984;0.17170779028674588;500.0;-499.82829220971325
0.2760000000000002;-10830610094.0;-10811409720.0;-317.0;-4800.014144938377;-4800.0406584962475;0.006806831161156879;0.17168167732961592;1000.0;-999.8283183226704
0.2800000000000002;-10849810149.0;-10830609855.0;-239.0;-4800.013460461701;-4800.033851665086;0.005366726709326031;0.17111916918111092;1166.6666666666667;-1166.4955474974856
0.2840000000000002;-10869010201.0;-10849809968.0;-181.0;-4800.012778087904;-4800.028484938377;0.004164476676123741;0.17059344918379793;1083.3333333333333;-1083.1627398841495
0.2880000000000002;-10888210250.0;-10869010065.0;-136.0;-4800.012096793824;-4800.024320461701;0.0033823737967395573;0.17032352002388507;916.6666666666666;-916.4963431466427
0.2920000000000002;-10907410297.0;-10888210148.0;-102.0;-4800.011415608811;-4800.020938087904;0.0027212940804020036;0.17029625314535224;666.6666666666666;-666.4963704135213
0.2960000000000002;-10926610341.0;-10907410220.0;-77.0;-4800.0107339892575;-4800.018216793824;0.002181185012886999;0.17040488842212653;500.0;-499.8295951115779
0.3000000000000002;-10945810382.0;-10926610284.0;-57.0;-4800.010051739533;-4800.016035608811;0.0018816195533872815;0.17056243109436764;333.3333333333333;-333.16277090223895
0.3040000000000002;-10965010420.0;-10945810340.0;-42.0;-4800.009368920808;-4800.0141539892575;0.0015822497243789257;0.17070468129531946;250.0;-249.82929531870468
0.3080000000000002;-10984210456.0;-10965010390.0;-30.0;-4800.008685651383;-4800.012571739533;0.001402818725182442;0.17081735632018535;250.0;-249.82918264367981
0.3120000000000002;-11003410489.0;-10984210434.0;-22.0;-4800.008002037441;-4800.011168920808;0.0011632694249783526;0.17090348546844325;166.66666666666666;-166.4957631811982
0.3160000000000002;-11022610519.0;-11003410474.0;-15.0;-4800.007318151119;-4800.010005651383;0.001103613942177617;0.17097158047363337;83.33333333333333;-83.1623617528597
0.32000000000000023;-11041810547.0;-11022610509.0;-10.0;-4800.006634015497;-4800.008902037441;0.0009838863215918536;0.17103390541706176;83.33333333333333;-83.16229942791627
0.32400000000000023;-11061010571.0;-11041810540.0;-7.0;-4800.005949638656;-4800.007918151119;0.0008641356216685381;0.17109421037275752;83.33333333333333;-83.16223912296057
0.32800000000000024;-11080210593.0;-11061010568.0;-3.0;-4800.005265006169;-4800.0070540154975;0.000924376841794583;0.17115812170231948;83.33333333333333;-83.16217521163101
0.33200000000000024;-11099410612.0;-11080210592.0;-1.0;-4800.004580132462;-4800.006129638656;0.000804632486506307;0.17121842665801523;0.0;0.17121842665801523
0.33600000000000024;-11118610629.0;-11099410613.0;1.0;-4800.003895015805;-4800.005325006169;0.0008048737072385848;0.17127916430581536;0.0;0.17127916430581536
0.34000000000000025;-11137810643.0;-11118610631.0;2.0;-4800.003209660236;-4800.004520132462;0.0007451166566170286;0.17133889218712284;0.0;0.17133889218712284
0.34400000000000025;-11157010654.0;-11137810646.0;3.0;-4800.002524084223;-4800.003775015805;0.0007453555690517533;0.17139400324595044;0.0;0.17139400324595044
0.34800000000000025;-11176210662.0;-11157010658.0;4.0;-4800.001838297;-4800.003029660236;0.0007455760132870637;0.17144680577985127;0.0;0.17144680577985127
0.35200000000000026;-11195410668.0;-11176210667.0;5.0;-4800.001152308952;-4800.002284084223;0.0007457872225131723;0.17149701193375222;0.0;0.17149701193375222
0.35600000000000026;-11214610670.0;-11195410673.0;5.0;-4800.000466131045;-4800.0015382970005;0.0006859880477350089;0.17154447687062202;0.0;0.17154447687062202
0.36000000000000026;-11233810670.0;-11214610676.0;6.0;-4799.999779767319;-4800.000852308953;0.00074617790778575;0.17159093158625183;0.0;0.17159093158625183
0.36400000000000027;-11253010668.0;-11233810676.0;6.0;-4799.999093240279;-4800.000106131045;0.0006863637263450073;0.1716317599402828;0.0;0.1716317599402828
0.36800000000000027;-11272210662.0;-11253010673.0;5.0;-4799.99840655281;-4799.999419767319;0.0006265270394578693;0.17167186729238892;0.0;0.17167186729238892
0.3720000000000003;-11291410654.0;-11272210668.0;6.0;-4799.997719711261;-4799.998793240279;0.0007466874694728176;0.1717103871214931;0.0;0.1717103871214931
0.3760000000000003;-11310610643.0;-11291410660.0;6.0;-4799.997032731213;-4799.99804655281;0.0006868415484859725;0.17174501203953696;0.0;0.17174501203953696
0.3800000000000003;-11329810629.0;-11310610649.0;6.0;-4799.996345623631;-4799.997359711261;0.0006869800481581478;0.171776895513176;0.0;0.171776895513176
0.3840000000000003;-11349010613.0;-11329810635.0;6.0;-4799.995658396592;-4799.996672731213;0.000687107582052704;0.1718067596812034;0.0;0.1718067596812034
0.3880000000000003;-11368210594.0;-11349010618.0;5.0;-4799.994971055869;-4799.995985623631;0.0006272270384215517;0.17183518070851278;0.0;0.17183518070851278
0.3920000000000003;-11387410572.0;-11368210599.0;5.0;-4799.99428362166;-4799.995358396593;0.0006873407228340511;0.1718585524486116;0.0;0.1718585524486116
0.3960000000000003;-11406610547.0;-11387410577.0;5.0;-4799.993596090501;-4799.99467105587;0.0006874342097944464;0.17188278957291914;0.0;0.17188278957291914
0.4000000000000003;-11425810520.0;-11406610552.0;5.0;-4799.992908490669;-4799.99398362166;0.0006875311582916765;0.1718999581044045;0.0;0.1718999581044045
0.4040000000000003;-11445010489.0;-11425810525.0;5.0;-4799.992220816971;-4799.993296090502;0.000687599832417618;0.1719184244848293;0.0;0.1719184244848293
0.4080000000000003;-11464210456.0;-11445010495.0;6.0;-4799.991533081526;-4799.992608490669;0.0007476736982425791;0.1719338613384025;0.0;0.1719338613384025
0.4120000000000003;-11483410421.0;-11464210462.0;6.0;-4799.990845302222;-4799.991860816971;0.00068773544535361;0.1719448259791534;0.0;0.1719448259791534
0.4160000000000003;-11502610382.0;-11483410426.0;5.0;-4799.990157485985;-4799.991173081526;0.0006277793036133517;0.1719540591693658;0.0;0.1719540591693658
0.4200000000000003;-11521810341.0;-11502610388.0;6.0;-4799.989469638587;-4799.990545302222;0.0007478162369807251;0.17196184944623383;0.0;0.17196184944623383
0.4240000000000003;-11541010297.0;-11521810347.0;6.0;-4799.988781777915;-4799.989797485985;0.0006878473977849353;0.17196516796502692;0.0;0.17196516796502692
0.4280000000000003;-11560210250.0;-11541010303.0;6.0;-4799.988093901662;-4799.989109638587;0.0006878606718601077;0.17196906333083462;0.0;0.17196906333083462
0.43200000000000033;-11579394133.0;-11560210256.0;6.0;-4795.970559061808;-4799.988421777915;0.0006878762533233385;1004.3837099635766;83.33333333333333;921.0503766302432
0.43600000000000033;-11598516114.0;-11579410206.0;16073.0;-4780.494893255397;-4799.987733901662;4.9815548398546525;3868.916451602672;83.33333333333333;3785.5831182693387
0.44000000000000034;-11617524681.0;-11598590230.0;74116.0;-4752.141476197971;-4795.006179061807;18.95824580641056;7088.35426435644;83.33333333333333;7005.020931023107
0.44400000000000034;-11636322183.0;-11617694421.0;169740.0;-4699.375444214579;-4776.047933255397;34.09085705742564;13191.507995848042;0.0;13191.507995848042
0.44800000000000034;-11654714781.0;-11636662249.0;340066.0;-4598.149175808048;-4741.957076197971;62.985591983391714;25306.56710163271;166.66666666666666;25139.900434966043
0.45200000000000035;-11672468305.0;-11655378134.0;663353.0;-4438.380726669161;-4678.9714842145795;120.62348840653158;39942.112284721814;500.0;39442.112284721814
0.45600000000000035;-11689405966.0;-11673611525.0;1143220.0;-4234.4150089481045;-4558.347995808048;188.56046913888713;50991.429430264136;1166.6666666666667;49824.762763597464
0.46000000000000035;-11705372530.0;-11691090675.0;1684709.0;-3991.6409914333312;-4369.787526669161;236.45505772105662;60693.50437869332;2083.3333333333335;58610.17104535999
0.46400000000000036;-11720178699.0;-11707624004.0;2251474.0;-3701.542090040334;-4133.332468948104;276.77991751477293;72524.72534824927;3500.0;69024.72534824927
0.46800000000000036;-11733657007.0;-11723050214.0;2871515.0;-3369.5766318801666;-3856.5525514333312;327.301361392997;82991.3645400419;5250.0;77741.3645400419
0.47200000000000036;-11745745899.0;-11737167218.0;3510211.0;-3022.2229501118763;-3529.251190040334;370.2872181601674;86838.42044207256;7500.0;79338.42044207256
0.47600000000000037;-11756389601.0;-11749803073.0;4057174.0;-2660.9253970576233;-3158.963971880167;380.17146176829056;90324.38826356326;10000.0;80324.38826356326
0.48000000000000037;-11765512243.0;-11760918243.0;4528642.0;-2280.6603202171686;-2778.7925101118763;389.58563305425287;95066.26921011366;12833.333333333334;82232.93587678032
0.4840000000000004;-11773128147.0;-11770475070.0;4962827.0;-1903.9760380397386;-2389.2068770576234;406.3161768404548;94171.07054435751;15833.333333333334;78337.73721102418
0.4880000000000004;-11779321106.0;-11778406632.0;5278485.0;-1548.2397398842313;-1982.8907002171686;395.6237621774301;88934.07453887681;18916.666666666668;70017.40787221014
0.4920000000000004;-11784185155.0;-11784755699.0;5434593.0;-1216.012069558358;-1587.2669380397385;365.10277815550717;83056.91758146833;22000.0;61056.917581468326
0.4960000000000004;-11787843073.0;-11789644355.0;5459200.0;-914.4794595662443;-1222.1641598842314;333.70409032587327;75383.15249802843;25000.0;50383.15249802844
0.5000000000000003;-11790474274.0;-11793198195.0;5355122.0;-657.8002214304829;-888.4600695583581;295.28792999211373;64169.80953394034;27833.333333333332;36336.47620060701
