Zeit[sec];Sollposition[°];Istposition[°];Positionsschleppfehler[°];Sollgeschwindigkeit[°/s];Istgeschwindigkeit[°/s];Geschwindigkeitsdifferenz[°/s];Sollbeschleunigung[°/s*s];Istbeschleunigung[°/s*s];Beschleunigungsdifferenz[°/s*s]
0.0;0.0;5.0;-5.0;-0.0;-0.00021499999999999997;0.0;0.0;0.0;0.0
0.004;0.0;5.0;-5.0;-0.0;-0.00021499999999999997;0.0;0.0;0.0;0.0
0.008;0.0;5.0;-5.0;-0.0;-0.00021499999999999997;0.0;0.0;0.0;0.0
0.012;0.0;5.0;-5.0;-0.0;-0.00021499999999999997;0.0;0.0;0.0;0.0
0.016;0.0;5.0;-5.0;-0.0;-0.00021499999999999997;0.0;0.0;0.0;0.0
0.02;0.0;5.0;-5.0;-0.0;-0.00021499999999999997;0.0;0.0;0.0;0.0
0.024;0.0;5.0;-5.0;-0.0;-0.00021499999999999997;0.0;0.0;0.0;0.0
0.028;0.0;5.0;-5.0;-0.0;-0.00021499999999999997;0.0;0.0;0.0;0.0
0.032;0.0;5.0;-5.0;-0.0;-0.00021499999999999997;0.0;0.0;0.0;0.0
0.036000000000000004;0.0;5.0;-5.0;-0.0;-0.00021499999999999997;0.0;0.0;0.0;0.0
0.04000000000000001;0.0;5.0;-5.0;-0.0;-0.00021499999999999997;0.0;0.0;0.0;0.0
0.04400000000000001;0.0;5.0;-5.0;-0.0;-0.00021499999999999997;0.0;0.0;0.0;0.0
0.048000000000000015;0.0;5.0;-5.0;-0.0;-0.00021499999999999997;0.0;0.0;0.0;0.0
0.05200000000000002;0.0;5.0;-5.0;-0.0;-0.00021499999999999997;0.0;0.0;0.0;0.0
0.05600000000000002;0.0;5.0;-5.0;-0.0;-0.00021499999999999997;0.0;0.0;0.0;0.0
0.060000000000000026;-361.0;5.0;-5.0;-0.0903712210907881;-0.00021499999999999997;0.0;-22.592805272697024;0.0;-22.592805272697024
0.06400000000000003;-3963.0;5.0;-366.0;-0.9006100267674323;-0.00021499999999999997;-0.1058942210907881;-202.55970141916106;0.0;-202.55970141916106
0.06800000000000003;-21670.0;-419.0;-3544.0;-4.426680906035607;-0.1061092210907881;-0.9468928056766441;-881.5177198170436;0.0;-881.5177198170436
0.07200000000000004;-80197.0;-4631.0;-17039.0;-14.631689773057477;-1.0530020267674323;-4.1063558792681745;-2551.2522167554675;0.0;-2551.2522167554675
0.07600000000000004;-228670.0;-25268.0;-54929.0;-37.11816461188362;-5.1593579060356065;-11.834278867021872;-5621.618709706536;0.0;-5621.618709706536
0.08000000000000004;-539198.0;-93242.0;-135428.0;-77.63212047268777;-16.993636773057478;-25.94793183882614;-10128.488965201039;0.0;-10128.488965201039
0.08400000000000005;-1100062.0;-265008.0;-274190.0;-140.21597018134003;-42.94156861188362;-46.48072186080416;-15645.962427163064;-166.66666666666666;-15479.295760496396
0.08800000000000005;-2006907.0;-622697.0;-477365.0;-226.71119111292825;-89.42229047268778;-71.32037470865224;-21623.805232897055;-333.3333333333333;-21290.471899563723
0.09200000000000005;-3358277.0;-1265667.0;-741240.0;-337.84262769455046;-160.74266518134002;-97.84184593158821;-27782.859145405553;-750.0;-27032.859145405553
0.09600000000000006;-5254488.0;-2300005.0;-1058272.0;-474.05269474673827;-258.5845111129282;-124.76381258162223;-34052.51676304695;-1250.0;-32802.51676304695
0.10000000000000006;-7794471.0;-3833398.0;-1421090.0;-634.9957674316055;-383.34832369455046;-151.81124105218782;-40235.768171216805;-2083.3333333333335;-38152.43483788347
0.10400000000000006;-11069449.0;-5974036.0;-1820435.0;-818.7444595064678;-535.1595647467383;-178.11490768486715;-45937.173018715584;-3083.3333333333335;-42853.83968538225
0.10800000000000007;-15157092.0;-8827133.0;-2242316.0;-1021.9106104035167;-713.2744724316054;-201.88957507486236;-50791.53772426221;-4250.0;-46541.53772426221
0.11200000000000007;-20117967.0;-12487789.0;-2669303.0;-1240.2186643205957;-915.1640475064678;-221.52659189704877;-54577.013479269765;-5666.666666666667;-48910.3468126031
0.11600000000000008;-25993568.0;-17034551.0;-3083416.0;-1468.9002109308742;-1136.6906394035166;-236.1149129170792;-57170.38665256962;-7250.0;-49920.38665256962
0.12000000000000008;-32806903.0;-22525773.0;-3467795.0;-1703.333615066829;-1372.8055523205958;-245.2098436102783;-58608.3510339887;-8916.666666666666;-49691.68436732203
0.12400000000000008;-40566601.0;-28997834.0;-3809069.0;-1939.9244445139573;-1618.015395930874;-249.10818613595484;-59147.70736178207;-10750.0;-48397.70736178207
0.12800000000000009;-49272796.0;-36466328.0;-4100273.0;-2176.548574504538;-1867.123582066829;-249.11260144712833;-59156.03249764519;-12583.333333333334;-46572.69916431185
0.1320000000000001;-58922205.0;-44931272.0;-4341524.0;-2412.3521988174402;-2116.2361835139573;-246.99792299058072;-58950.906078225555;-14666.666666666666;-44284.23941155889
0.1360000000000001;-69510997.0;-54384208.0;-4537997.0;-2647.1978288854693;-2363.234106504538;-244.25196331290226;-58711.407517007276;-16500.0;-42211.407517007276
0.1400000000000001;-81035506.0;-64814152.0;-4696845.0;-2881.127230812826;-2607.4860698174402;-241.67609406802922;-58482.35048183915;-18500.0;-39982.35048183915
0.1440000000000001;-93490845.0;-76210800.0;-4824706.0;-3113.834632811941;-2849.1621638854695;-239.42742492735624;-58176.85049977877;-20333.333333333332;-37843.51716644543
0.1480000000000001;-106865873.0;-88565158.0;-4925687.0;-3343.756849691289;-3088.5895888128257;-237.04958499911527;-57480.55421983702;-22250.0;-35230.55421983702
0.1520000000000001;-121135156.0;-101867714.0;-4998159.0;-3567.320485237685;-3325.639173811941;-233.03851287934822;-55890.90888659893;-24083.333333333332;-31807.575553265604
0.1560000000000001;-136253053.0;-116102424.0;-5032732.0;-3779.474186554192;-3558.677686691289;-225.05027454639549;-53038.42532912677;-26000.0;-27038.425329126767
0.16000000000000011;-152153261.0;-131237335.0;-5015718.0;-3975.0516571037892;-3783.7279612376847;-211.42209931650723;-48894.367637399344;-27833.333333333332;-21061.03430406601
0.16400000000000012;-168752168.0;-147217935.0;-4935326.0;-4149.72654384385;-3995.150060554192;-192.12061454959758;-43668.72168501516;-29583.333333333332;-14085.388351681824
0.16800000000000012;-185953819.0;-163967017.0;-4785151.0;-4300.412675784334;-4187.2706751037895;-168.21736174006037;-37671.53298512108;-31083.333333333332;-6588.199651787743
0.17200000000000013;-203655403.0;-181388969.0;-4564850.0;-4425.395689765852;-4355.48803684385;-141.21318894048454;-31245.753495379402;-32666.666666666668;1420.913171287264
0.17600000000000013;-221752089.0;-199375773.0;-4279630.0;-4524.171336686705;-4496.701225784334;-112.71855398151729;-24693.91173021336;-33916.666666666664;9222.754936453306
0.18000000000000013;-240141160.0;-217813452.0;-3938637.0;-4597.26743910108;-4609.419779765852;-84.11294792085391;-18274.0256035936;-35083.333333333336;16809.307729739736
0.18400000000000014;-258727752.0;-236587582.0;-3553578.0;-4646.647870672367;-4693.532727686706;-56.53856541437381;-12345.107892821943;-35916.666666666664;23571.55877384472
0.18800000000000014;-277432579.0;-255587867.0;-3139885.0;-4676.206382645515;-4750.071293101079;-31.591632571287846;-7389.627993286922;-36583.333333333336;29193.705340046414
0.19200000000000014;-296197236.0;-274714518.0;-2718061.0;-4691.164137249277;-4781.662925672367;-11.42007997314795;-3739.4386509404285;-37083.333333333336;33343.89468239291
0.19600000000000015;-314984181.0;-293886850.0;-2310386.0;-4696.736042089915;-4793.083005645515;2.5722703962383093;-1392.9762101595315;-37250.0;35857.02378984047
0.20000000000000015;-333773114.0;-313048892.0;-1935289.0;-4697.233085250989;-4790.510735249277;10.55726615936237;-124.26079026840853;-37416.666666666664;37292.405876398254
0.20400000000000015;-352556026.0;-332168705.0;-1604409.0;-4695.727733429642;-4779.9534690899145;13.730796838925926;376.33795533656667;-37333.333333333336;37709.6712886699
0.20800000000000016;-371332081.0;-351233595.0;-1322431.0;-4694.013411706216;-4766.222672250989;13.630405821346358;428.5804308565275;-37333.333333333336;37761.91376418986
0.21200000000000016;-390103419.0;-370243964.0;-1088117.0;-4692.834390828558;-4752.592266429642;11.789823723425798;294.7552194145828;-37083.333333333336;37378.08855274792
0.21600000000000016;-408872540.0;-389207173.0;-896246.0;-4692.280007154716;-4740.802442706216;9.429473877658893;138.5959184603962;-36750.0;36888.5959184604
0.22000000000000017;-427641166.0;-408132664.0;-739876.0;-4692.156287082947;-4731.3729688285575;7.27829367384129;30.930017942409904;-36250.0;36280.93001794241
0.22400000000000017;-446410091.0;-427029042.0;-612124.0;-4692.231101892257;-4724.094675154716;5.617056071769184;-18.70370232768437;-35666.666666666664;35647.96296433898
0.22800000000000017;-465179467.0;-445902952.0;-507139.0;-4692.343743408131;-4718.477619082947;4.439540190689513;-28.16037896832313;-34833.333333333336;34805.172954365014
0.23200000000000018;-483949153.0;-464759104.0;-420363.0;-4692.421099963304;-4714.0380788922575;3.618726484126455;-19.339138793384336;-33833.333333333336;33813.99419453995
0.23600000000000018;-502718958.0;-483600781.0;-348372.0;-4692.45101623766;-4710.419352408131;3.018256444826875;-7.479068588963855;-32583.333333333332;32575.85426474437
0.24000000000000019;-521488754.0;-502430385.0;-288573.0;-4692.4488546710445;-4707.401095963304;2.5414407256439517;0.5403916538853082;-31166.666666666668;31167.207058320553
0.2440000000000002;-540258491.0;-521249823.0;-238931.0;-4692.434095303171;-4704.85965523766;2.136767566616072;3.689841968480323;-29583.333333333332;29587.023175301812
0.2480000000000002;-559028171.0;-540060714.0;-197777.0;-4692.419808414778;-4702.722887671044;1.7843813678737206;3.5717220980586717;-27833.333333333332;27836.90505543139
0.25200000000000017;-577797817.0;-558864468.0;-163703.0;-4692.411187968642;-4700.9385063031705;1.479468888392148;2.1551115341935656;-26000.0;26002.155111534194
0.25600000000000017;-596567450.0;-577662304.0;-135513.0;-4692.408160123358;-4699.459037414778;1.2207904461365615;0.7569613208033843;-24083.333333333332;24084.090294654136
0.2600000000000002;-615337085.0;-596455256.0;-112194.0;-4692.4085369861705;-4698.238246968642;1.005744845283516;-0.09421570302947657;-22083.333333333332;22083.239117630303
0.2640000000000002;-634106727.0;-615244186.0;-92899.0;-4692.410125069461;-4697.232502123358;0.8293081371875815;-0.3970208226746763;-20166.666666666668;20166.269645843993
0.2680000000000002;-652876374.0;-634029798.0;-76929.0;-4692.4115788471245;-4696.403193986171;0.6851219167092495;-0.36344441582514264;-18166.666666666668;18166.30322225084
0.2720000000000002;-671646025.0;-652812670.0;-63704.0;-4692.412414162101;-4695.718072069461;0.5672212223371389;-0.20882874423477915;-16333.333333333334;16333.1245045891
0.2760000000000002;-690415676.0;-671593273.0;-52752.0;-4692.412678777542;-4695.150850847124;0.47010068502277136;-0.06615386018893332;-14416.666666666666;14416.600512806477
0.2800000000000002;-709185328.0;-690371996.0;-43680.0;-4692.412613865298;-4694.6807501621015;0.3898313845593293;0.01622806098566798;-12583.333333333334;12583.34956139432
0.2840000000000002;-727954978.0;-709149159.0;-36169.0;-4692.412443690058;-4694.290918777542;0.3230379122442173;0.04254380996826512;-10750.0;10750.042543809968
0.2880000000000002;-746724628.0;-727925030.0;-29948.0;-4692.412298388045;-4693.967880865298;0.2676731752399064;0.036325503288026084;-8916.666666666666;8916.702992169954
0.2920000000000002;-765494278.0;-746699830.0;-24798.0;-4692.412219907677;-4693.700207690058;0.22159530201315647;0.019620091961769504;-7166.666666666667;7166.686286758629
0.2960000000000002;-784263928.0;-765473744.0;-20534.0;-4692.412198768212;-4693.478612388045;0.18343048036786058;0.005284866347210482;-5500.0;5500.005284866347
0.3000000000000002;-803033577.0;-784246924.0;-17004.0;-4692.412208753621;-4693.295181907677;0.15181113946528058;-0.002496352180969552;-4000.0;3999.997503647819
0.3040000000000002;-821803227.0;-803019497.0;-14080.0;-4692.412227245795;-4693.143370768212;0.12572201459079224;-0.004623043651008629;-2666.6666666666665;2666.6620436230155
0.3080000000000002;-840572877.0;-821791567.0;-11660.0;-4692.4122419061405;-4693.017648753621;0.10404150782596844;-0.003665086296678055;-1583.3333333333333;1583.3296682470366
0.3120000000000002;-859342527.0;-840563221.0;-9656.0;-4692.4122493143395;-4692.913607245795;0.08615733965416439;-0.0018520497633289779;-750.0;749.9981479502367
0.3160000000000002;-878112177.0;-859334530.0;-7997.0;-4692.412250940331;-4692.827449906141;0.07132959180125908;-0.00040649797483638395;-83.33333333333333;83.33292683535849
0.32000000000000023;-896881827.0;-878105554.0;-6623.0;-4692.41224962819;-4692.75612031434;0.0590803740078627;0.00032803541216708254;416.6666666666667;-416.6663386312545
0.32400000000000023;-915651477.0;-896876342.0;-5485.0;-4692.412247658252;-4692.697039940332;0.04893531214202085;0.0004924843324261019;666.6666666666666;-666.6661741823342
0.32800000000000024;-934421127.0;-915646934.0;-4543.0;-4692.412246195654;-4692.64810462819;0.04050796993760741;0.000365649611921981;750.0;-749.9996343503881
0.33200000000000024;-953190776.0;-934417364.0;-3763.0;-4692.412245506361;-4692.607596658252;0.03354146259789559;0.00017232332538696937;666.6666666666666;-666.6664943433412
0.33600000000000024;-971960426.0;-953187660.0;-3116.0;-4692.412245394395;-4692.574055195654;0.027821689293887175;2.7991518436465412e-05;666.6666666666666;-666.6666386751482
0.34000000000000025;-990730076.0;-971957844.0;-2582.0;-4692.412245555985;-4692.54623350636;0.022962111966080556;-4.039748091599904e-05;583.3333333333334;-583.3333737308143
0.34400000000000025;-1009499726.0;-990727937.0;-2139.0;-4692.412245763278;-4692.523271394394;0.01904883840961702;-5.182346285437234e-05;500.0;-500.00005182346285
0.34800000000000025;-1028269376.0;-1009497953.0;-1773.0;-4692.412245907954;-4692.504222555985;0.015737792706204345;-3.616878530010581e-05;333.3333333333333;-333.3333695021186
0.35200000000000026;-1047039026.0;-1028267906.0;-1470.0;-4692.412245970946;-4692.488484763278;0.01302885532459186;-1.5748128134873696e-05;250.0;-250.00001574812813
0.35600000000000026;-1065808676.0;-1047037807.0;-1219.0;-4692.412245977103;-4692.475455907954;0.010792937007863657;-1.539319782750681e-06;250.0;-250.00000153931978
0.36000000000000026;-1084578326.0;-1065807665.0;-1011.0;-4692.412245958042;-4692.464662970946;0.008943993842876807;4.7652974899392575e-06;250.0;-249.9999952347025
0.36400000000000027;-1103347975.0;-1084577487.0;-839.0;-4692.41224593631;-4692.455718977103;0.007396019061161496;5.43309397471603e-06;166.66666666666666;-166.66666123357268
0.36800000000000027;-1122117625.0;-1103347280.0;-695.0;-4692.4122459221;-4692.448322958042;0.006192021732204012;3.5524863051250577e-06;166.66666666666666;-166.66666311418035
0.3720000000000003;-1140887275.0;-1122117048.0;-577.0;-4692.412245916411;-4692.44213093631;0.005074014209640154;1.4222223398974165e-06;83.33333333333333;-83.33333191111099
0.3760000000000003;-1159656925.0;-1140886796.0;-479.0;-4692.4122459165355;-4692.4370569221;0.0042140056893913425;-3.115019353572279e-08;166.66666666666666;-166.66666669781685
0.3800000000000003;-1178426575.0;-1159656527.0;-398.0;-4692.412245918586;-4692.432842916411;0.0034829998749046354;-5.127276381244883e-07;83.33333333333333;-83.33333384606097
0.3840000000000003;-1197196106.0;-1178426244.0;-331.0;-4692.382429576841;-4692.429359916536;0.00288099794943264;7.454085436393143;83.33333333333333;-75.87924789694019
0.3880000000000003;-1215964746.0;-1197195949.0;-157.0;-4692.159830507676;-4692.426478918586;0.03729834174555435;55.649767291242824;0.0;55.649767291242824
0.3920000000000003;-1234730158.0;-1215965505.0;759.0;-4691.352728290547;-4692.389180576841;0.2619870691651158;201.7755542822215;0.0;201.7755542822215
0.3960000000000003;-1253486761.0;-1234734013.0;3855.0;-4689.150576975642;-4692.127193507676;0.9402302171283736;550.537828726192;0.0;550.537828726192
0.4000000000000003;-1272221288.0;-1253498760.0;11999.0;-4683.631632354809;-4691.186963290547;2.552343314904647;1379.7361552083203;83.33333333333333;1296.402821874987
0.4040000000000003;-1290905651.0;-1272253298.0;32010.0;-4671.090415985806;-4688.634619975643;6.3794176208339195;3135.304092250635;83.33333333333333;3051.9707589173017
0.4080000000000003;-1309491845.0;-1290982318.0;76667.0;-4646.548365702435;-4682.255202354809;14.461467369002094;6135.51257084282;83.33333333333333;6052.179237509487
0.4120000000000003;-1327912234.0;-1309653492.0;161647.0;-4605.097104709107;-4667.793734985807;28.196190283371834;10362.815248332026;83.33333333333333;10279.481914998692
0.4160000000000003;-1346083619.0;-1328211882.0;299648.0;-4542.845997278845;-4639.597544702435;47.3853039933274;15562.776857565495;250.0;15312.776857565495
0.4200000000000003;-1363912597.0;-1346580730.0;497111.0;-4457.244246345023;-4592.212240709107;70.74201643026208;21400.43773345542;500.0;20900.43773345542
0.4240000000000003;-1381300987.0;-1364666610.0;754013.0;-4347.097327562274;-4521.470224278845;96.64853693382156;27536.729695687427;833.3333333333334;26703.396362354095
0.4280000000000003;-1398150352.0;-1382365896.0;1064909.0;-4212.341040975035;-4424.821687345024;123.51544678274968;33689.07164680968;1416.6666666666667;32272.404980143012
0.43200000000000033;-1414365675.0;-1399571120.0;1420768.0;-4053.8305121726185;-4301.306240562274;150.0582235872389;39627.63220060412;2166.6666666666665;37460.96553393746
0.43600000000000033;-1429860503.0;-1416176112.0;1810437.0;-3873.706928501177;-4151.248016975035;175.2662958024166;45030.89591786033;3166.6666666666665;41864.22925119367
0.44000000000000034;-1444564029.0;-1432080038.0;2219535.0;-3675.881258103516;-3975.9817211726186;197.71479767144137;49456.41759941532;4250.0;45206.41759941532
0.44400000000000034;-1458425852.0;-1447193105.0;2629076.0;-3465.4554717026754;-3778.266923501177;215.4359333976613;52606.44660021012;5666.666666666667;46939.779933543454
0.44800000000000034;-1471415386.0;-1461444428.0;3018576.0;-3247.3835324331203;-3562.830990103516;227.17428640084063;54517.984817388766;7166.666666666667;47351.3181507221
0.45200000000000035;-1483517607.0;-1474787054.0;3371668.0;-3025.5548996313837;-3335.6567037026753;233.25489526955516;55457.15820043415;8916.666666666666;46540.49153376748
0.45600000000000035;-1494727735.0;-1487196661.0;3679054.0;-2802.5320539744903;-3102.40180843312;235.04623080173633;55755.711414223355;10583.333333333334;45172.37808089002
0.46000000000000035;-1505046357.0;-1498666083.0;3938348.0;-2579.6553469586993;-2867.3555776313838;234.17248765689328;55719.17675394775;12416.666666666666;43302.51008728109
0.46400000000000036;-1514475842.0;-1509198815.0;4152458.0;-2357.3709932889137;-2633.1830899744905;232.08343701579133;55571.088417446386;14250.0;41321.088417446386
0.46800000000000036;-1523018454.0;-1518803213.0;4327371.0;-2135.652864102522;-2401.099652958699;229.8056126697852;55429.53229659793;16083.333333333334;39346.19896326459
0.47200000000000036;-1530676049.0;-1527488389.0;4469935.0;-1914.3987262577577;-2171.294040288914;227.84838118639186;55313.53446119107;17916.666666666668;37396.8677945244
0.47600000000000037;-1537450787.0;-1535262171.0;4586122.0;-1693.684384623187;-1943.445659102522;226.25017884476438;55178.58540864268;19666.666666666668;35511.918741976006
0.48000000000000037;-1543346921.0;-1542130952.0;4680165.0;-1474.0335351896372;-1717.1954802577577;224.7581906345706;54912.71235838746;21500.0;33412.71235838746
0.4840000000000004;-1548375488.0;-1548100701.0;4753780.0;-1257.1415675172555;-1492.437289623187;222.81629443354996;54222.99191809543;23250.0;30972.99191809543
0.4880000000000004;-1552561654.0;-1553179184.0;4803696.0;-1046.5414585650683;-1269.6209951896371;219.0383556723816;52650.02723804679;25000.0;27650.02723804679
0.4920000000000004;-1555950037.0;-1557381514.0;4819860.0;-847.0957793888242;-1050.5826395172555;211.2951609521872;49861.41979406102;26750.0;23111.41979406102
0.4960000000000004;-1558604841.0;-1560738663.0;4788626.0;-663.7009957786431;-839.2874785650683;198.10261717624417;45848.695902545274;28416.666666666668;17432.029235878606
0.5000000000000003;-1560606368.0;-1563303402.0;4698561.0;-500.38181614629724;-641.1848613888242;179.52198861018104;40829.79490808647;30083.333333333332;10746.461574753137
0.5040000000000003;-1562045978.0;-1565150053.0;4543685.0;-359.90227548994017;-461.66287277864313;156.65951163234587;35119.88516408927;31583.333333333332;3536.5518307559364
