Zeit[sec];Sollposition[°];Istposition[°];Positionsschleppfehler[°];Sollgeschwindigkeit[°/s];Istgeschwindigkeit[°/s];Geschwindigkeitsdifferenz[°/s];Sollbeschleunigung[°/s*s];Istbeschleunigung[°/s*s];Beschleunigungsdifferenz[°/s*s]
0.0;0.0;4.0;-4.0;-0.0;-0.00023999999999999998;0.0;0.0;0.0;0.0
0.004;0.0;4.0;-4.0;-0.0;-0.00023999999999999998;0.0;0.0;0.0;0.0
0.008;0.0;4.0;-4.0;-0.0;-0.00023999999999999998;0.0;0.0;0.0;0.0
0.012;0.0;4.0;-4.0;-0.0;-0.00023999999999999998;0.0;0.0;0.0;0.0
0.016;0.0;4.0;-4.0;-0.0;-0.00023999999999999998;0.0;0.0;0.0;0.0
0.02;0.0;4.0;-4.0;-0.0;-0.00023999999999999998;0.0;0.0;0.0;0.0
0.024;0.0;4.0;-4.0;-0.0;-0.00023999999999999998;0.0;0.0;0.0;0.0
0.028;0.0;4.0;-4.0;-0.0;-0.00023999999999999998;0.0;0.0;0.0;0.0
0.032;0.0;4.0;-4.0;-0.0;-0.00023999999999999998;0.0;0.0;0.0;0.0
0.036000000000000004;0.0;4.0;-4.0;-0.0;-0.00023999999999999998;0.0;0.0;0.0;0.0
0.04000000000000001;0.0;4.0;-4.0;-0.0;-0.00023999999999999998;0.0;0.0;0.0;0.0
0.04400000000000001;0.0;4.0;-4.0;-0.0;-0.00023999999999999998;0.0;0.0;0.0;0.0
0.048000000000000015;0.0;4.0;-4.0;-0.0;-0.00023999999999999998;0.0;0.0;0.0;0.0
0.05200000000000002;0.0;4.0;-4.0;-0.0;-0.00023999999999999998;0.0;0.0;0.0;0.0
0.05600000000000002;0.0;4.0;-4.0;-0.0;-0.00023999999999999998;0.0;0.0;0.0;0.0
0.060000000000000026;-262.0;4.0;-4.0;-0.06561530524852274;-0.00023999999999999998;0.0;-16.403826312130686;0.0;-16.403826312130686
0.06400000000000003;-2878.0;4.0;-266.0;-0.6539006677453059;-0.00023999999999999998;-0.08133530524852274;-147.07134062419578;0.0;-147.07134062419578
0.06800000000000003;-15734.0;-322.0;-2556.0;-3.2140543790542906;-0.08157530524852274;-0.7256853624967831;-640.0384278272462;0.0;-640.0384278272462
0.07200000000000004;-58228.0;-3551.0;-12183.0;-10.623545628489941;-0.8072606677453058;-3.137773711308985;-1852.3728123589126;0.0;-1852.3728123589126
0.07600000000000004;-166029.0;-19331.0;-38897.0;-26.950169222816715;-3.9450343790542908;-9.01233124943565;-4081.6558985816937;0.0;-4081.6558985816937
0.08000000000000004;-391492.0;-71160.0;-94869.0;-56.36590078571545;-12.95736562848994;-19.684943594326775;-7353.9328907246845;0.0;-7353.9328907246845
0.08400000000000005;-798715.0;-201729.0;-189763.0;-101.80579141309255;-32.64230922281671;-35.10937156289874;-11359.972656844275;-83.33333333333333;-11276.63932351094
0.08800000000000005;-1457143.0;-472735.0;-325980.0;-164.606871838952;-67.75168078571545;-53.61291062737709;-15700.270106464863;-250.0;-15450.270106464863
0.09200000000000005;-2438325.0;-958193.0;-498950.0;-245.2954256275393;-121.36459141309254;-73.17928042585945;-20172.138447146823;-583.3333333333334;-19588.805113813487
0.09600000000000006;-3815095.0;-1736368.0;-701957.0;-344.1926743264897;-194.543871838952;-92.86897378858731;-24724.3121747376;-1000.0;-23724.3121747376
0.10000000000000006;-5659286.0;-2886019.0;-929076.0;-461.04767212630287;-287.4128456275393;-112.52438869895036;-29213.7494499533;-1583.3333333333333;-27630.416116619963
0.10400000000000006;-8037130.0;-4485767.0;-1173519.0;-594.461012942681;-399.93723432648966;-131.5215777998132;-33353.33520409453;-2333.3333333333335;-31020.0018707612
0.10800000000000007;-11004638.0;-6611602.0;-1425528.0;-741.876909332062;-531.4588121263029;-148.5338808163782;-36853.97409734526;-3166.6666666666665;-33687.30743067859
0.11200000000000007;-14603309.0;-9331572.0;-1673066.0;-899.6676107196168;-679.9926929426811;-162.26817638938098;-39447.675346888704;-4166.666666666667;-35281.00868022203
0.11600000000000008;-18855760.0;-12700615.0;-1902694.0;-1063.1128000677838;-842.260869332062;-171.56838138755484;-40861.297337041746;-5333.333333333333;-35527.96400370842
0.12000000000000008;-23763380.0;-16755932.0;-2099828.0;-1226.904764660947;-1013.8292507196169;-175.27322934816686;-40947.991148290785;-6583.333333333333;-34364.65781495745
0.12400000000000008;-29306663.0;-21512341.0;-2251039.0;-1385.8208298102159;-1189.1024800677837;-172.86462459316317;-39729.01628731722;-8000.0;-31729.016287317223
0.12800000000000009;-35446556.0;-26960209.0;-2346454.0;-1534.973150908228;-1361.967104660947;-164.64096514926905;-37288.080274503045;-9250.0;-28038.080274503045
0.1320000000000001;-42126992.0;-33066641.0;-2379915.0;-1670.1088127045957;-1526.608069810216;-151.15998109801194;-33783.915449091925;-10666.666666666666;-23117.248782425257
0.1360000000000001;-49279456.0;-39777713.0;-2349279.0;-1788.1159936115484;-1677.768050908228;-133.2975017963679;-29501.79522673818;-11833.333333333334;-17668.46189340485
0.1400000000000001;-56828353.0;-47021975.0;-2257481.0;-1887.2241853102107;-1811.0655527045958;-112.49930090695261;-24777.047924665567;-13083.333333333334;-11693.714591332233
0.1440000000000001;-64695770.0;-54716234.0;-2112119.0;-1966.85408213924;-1923.5648536115484;-90.38647169866226;-19907.474207257335;-14083.333333333334;-5824.140873924003
0.1480000000000001;-72805816.0;-62772039.0;-1923731.0;-2027.51154798916;-2013.9513253102107;-68.32661682902949;-15164.36646247996;-15000.0;-164.36646247996123
0.1520000000000001;-81088609.0;-71101150.0;-1704666.0;-2070.698193652856;-2082.27794213924;-47.513565849919814;-10796.661415924007;-15666.666666666666;4870.005250742659
0.1560000000000001;-89483095.0;-79620316.0;-1468293.0;-2098.6213600287783;-2129.79150798916;-29.00426566369606;-6980.791593980598;-16250.0;9269.208406019403
0.16000000000000011;-97939331.0;-88255499.0;-1227596.0;-2114.058808391804;-2158.795773652856;-13.481346375922385;-3859.3620907564627;-16583.333333333332;12723.97124257687
0.16400000000000012;-106421029.0;-96944607.0;-994724.0;-2120.4243738855057;-2172.2771200287784;-1.465128363025542;-1591.391373425381;-16833.333333333332;15241.941959907952
0.16800000000000012;-114906512.0;-105639575.0;-781454.0;-2121.3705841127835;-2173.742248391804;6.430634506298247;-236.5525568194471;-16916.666666666668;16680.11410984722
0.17200000000000013;-123386374.0;-114308821.0;-597691.0;-2119.965629816828;-2167.3116138855057;10.079569772722152;351.23857398889413;-17000.0;17351.238573988892
0.17600000000000013;-131859063.0;-122937749.0;-448625.0;-2118.172069466607;-2157.2320441127836;10.348914295955637;448.39008755525356;-16916.666666666668;17365.05675422192
0.18000000000000013;-140326580.0;-131525281.0;-333782.0;-2116.8791266478115;-2146.883129816828;8.684140350221242;323.23570469884544;-16833.333333333332;17156.569038032176
0.18400000000000014;-148791571.0;-140078076.0;-248504.0;-2116.247534942919;-2138.1989894666067;6.409622818795015;157.89792622308596;-16750.0;16907.897926223086
0.18800000000000014;-157255954.0;-148605233.0;-186338.0;-2116.0957296304405;-2131.7893666478117;4.361551704892463;37.951328119675054;-16666.666666666668;16704.617994786342
0.19200000000000014;-165720657.0;-157114944.0;-141010.0;-2116.175692442832;-2127.427814942919;2.8714853124788533;-19.990703097846563;-16666.666666666668;16646.67596356882
0.19600000000000015;-174185882.0;-165613169.0;-107488.0;-2116.306239651308;-2124.5563296304404;1.9313571876086826;-32.63680211898645;-16583.333333333332;16550.696531214344
0.20000000000000015;-182651484.0;-174103668.0;-82214.0;-2116.4004030879623;-2122.6249724428317;1.3858927915239292;-23.540859163631467;-16666.666666666668;16643.125807503035
0.20400000000000015;-191117247.0;-182588624.0;-62860.0;-2116.440532461335;-2121.2390796513077;1.0670765633453811;-10.032343343141292;-16583.333333333332;16573.30098999019
0.20800000000000016;-199583016.0;-191069312.0;-47935.0;-2116.4421629397993;-2120.1720030879624;0.8553706266275185;-0.4076196161122425;-16583.333333333332;16582.92571371722
0.21200000000000016;-208048725.0;-199546578.0;-36438.0;-2116.427244350531;-2119.316632461335;0.6881895215356053;3.729647317072704;-16416.666666666668;16420.39631398374
0.21600000000000016;-216514371.0;-208021091.0;-27634.0;-2116.4113232960594;-2118.6284429397992;0.543158589268387;3.9802636179047113;-16250.0;16253.980263617905
0.22000000000000017;-224979976.0;-216493432.0;-20939.0;-2116.401133444989;-2118.085284350531;0.41762105447151043;2.54746276766582;-15916.666666666666;15919.214129434331
0.22400000000000017;-233445565.0;-224964102.0;-15874.0;-2116.397179436791;-2117.6676632960593;0.3140898510705483;0.9885020494948549;-15500.0;15500.988502049495
0.22800000000000017;-241911155.0;-233433516.0;-12049.0;-2116.3972489573757;-2117.353573444989;0.23345400819789575;-0.01738014623242634;-15000.0;14999.982619853767
0.23200000000000018;-250376751.0;-241901996.0;-9159.0;-2116.398895958582;-2117.120119436791;0.17333047941519908;-0.4117503016232149;-14250.0;14249.588249698376
0.23600000000000018;-258842353.0;-250369783.0;-6968.0;-2116.400531057844;-2116.9467889573757;0.1298129987935681;-0.40877481546885974;-13416.666666666666;13416.257891851197
0.24000000000000019;-267307960.0;-258837050.0;-5303.0;-2116.401525243849;-2116.816975958582;0.09826490073783134;-0.24854650121142186;-12333.333333333334;12333.084786832122
0.2440000000000002;-275773567.0;-267303924.0;-4036.0;-2116.4018774843626;-2116.7187110578443;0.07502581399558039;-0.08806012840523181;-11250.0;11249.911939871596
0.2480000000000002;-284239175.0;-275770498.0;-3069.0;-2116.4018374489897;-2116.6436852438487;0.0576677594863213;0.01000884321911144;-9916.666666666666;9916.676675509885
0.25200000000000017;-292704782.0;-284236842.0;-2333.0;-2116.4016573639565;-2116.5860174843624;0.044200035372796265;0.045021258301858325;-8583.333333333334;8583.378354591636
0.25600000000000017;-301170389.0;-292703009.0;-1773.0;-2116.4014921288135;-2116.5418174489896;0.033780085032958596;0.04130878573960217;-7250.0;7250.04130878574
0.2600000000000002;-309635995.0;-301169041.0;-1348.0;-2116.401397490348;-2116.5080373639566;0.02566523514315122;0.02365961643135961;-5916.666666666667;5916.690326283098
0.2640000000000002;-318101601.0;-309634970.0;-1025.0;-2116.401367999244;-2116.4823721288135;0.019474638465908356;0.007372775939984422;-4666.666666666667;4666.674039442607
0.2680000000000002;-326567206.0;-318100821.0;-780.0;-2116.40137600047;-2116.4628974903476;0.014729491103480541;-0.002000306494664983;-3416.6666666666665;3416.664666360172
0.2720000000000002;-335032812.0;-326566613.0;-593.0;-2116.4013958179644;-2116.448167999244;0.011211998773887899;-0.0049543735940460465;-2416.6666666666665;2416.6617122930725
0.2760000000000002;-343498418.0;-335032360.0;-452.0;-2116.401412603198;-2116.43695600047;0.008440182505637495;-0.004196308395876258;-1583.3333333333333;1583.3291370249374
0.2800000000000002;-351964025.0;-343498074.0;-344.0;-2116.4014216246183;-2116.4285158179646;0.006463214766426972;-0.0022553550707016257;-916.6666666666666;916.6644113115959
0.2840000000000002;-360429631.0;-351963762.0;-263.0;-2116.4014240299125;-2116.422052603198;0.0048509785797250515;-0.0006013235633872682;-333.3333333333333;333.3327320097699
0.2880000000000002;-368895237.0;-360429430.0;-201.0;-2116.4014228603273;-2116.4172016246184;0.003717594705904048;0.00029239629384392174;83.33333333333333;-83.33304093703948
0.2920000000000002;-377360843.0;-368895083.0;-154.0;-2116.4014207238056;-2116.4134840299125;0.0028211695853315177;0.0005341304358807974;333.3333333333333;-333.33279920289743
0.2960000000000002;-385826449.0;-377360725.0;-118.0;-2116.4014190366806;-2116.410662860327;0.0021621365217470156;0.00042178123749181395;416.6666666666667;-416.6662448854292
0.3000000000000002;-394292055.0;-385826359.0;-90.0;-2116.4014181874727;-2116.4085007238054;0.0016816871248011012;0.00021230198399280198;416.6666666666667;-416.6664543646827
0.3040000000000002;-402757661.0;-394291986.0;-69.0;-2116.4014180036843;-2116.4068190366806;0.0012608492079380085;4.5947103899379726e-05;416.6666666666667;-416.6666207195628
0.3080000000000002;-411223267.0;-402757608.0;-53.0;-2116.401418156685;-2116.4055581874727;0.0009601837882655673;-3.8250163925113156e-05;250.0;-250.00003825016393
0.3120000000000002;-419688873.0;-411223226.0;-41.0;-2116.4014183840145;-2116.4045980036844;0.0007198469993454637;-5.683239123754902e-05;250.0;-250.00005683239124
0.3160000000000002;-428154479.0;-419688841.0;-32.0;-2116.4014185521387;-2116.403878156685;0.0005397726704359229;-4.203104708722094e-05;166.66666666666666;-166.66670869771374
0.32000000000000023;-436620085.0;-428154454.0;-25.0;-2116.401418631001;-2116.4033383840147;0.0004198318761154951;-1.9715571397682652e-05;166.66666666666666;-166.66668638223805
0.32400000000000023;-445085691.0;-436620065.0;-20.0;-2116.4014186434842;-2116.4029185521385;0.00029992113741172943;-3.1208173822960816e-06;83.33333333333333;-83.33333645415071
0.32800000000000024;-453551297.0;-445085675.0;-16.0;-2116.4014186247036;-2116.402618631001;0.00023998751703402377;4.69515271106502e-06;0.0;4.69515271106502e-06
0.33200000000000024;-462016904.0;-453551284.0;-13.0;-2116.4014186007535;-2116.402378643484;0.0001800187806111353;5.9875446822843514e-06;83.33333333333333;-83.33332734578865
0.33600000000000024;-470482510.0;-462016892.0;-12.0;-2116.4014185841197;-2116.4021986247035;6.00239500272437e-05;4.158437150181271e-06;83.33333333333333;-83.33332917489618
0.34000000000000025;-478948116.0;-470482500.0;-10.0;-2116.401418576915;-2116.4021386007535;0.0001200166339003772;1.8011405700235628e-06;83.33333333333333;-83.33333153219276
0.34400000000000025;-487413722.0;-478948108.0;-8.0;-2116.4014185762476;-2116.4020185841196;0.00012000720425930922;1.6689227777533233e-07;0.0;1.6689227777533233e-07
0.34800000000000025;-495879328.0;-487413715.0;-7.0;-2116.4014185785218;-2116.4018985769153;6.0000667872373015e-05;-5.685478754458018e-07;0.0;-5.685478754458018e-07
0.35200000000000026;-504344934.0;-495879322.0;-6.0;-2116.401418580971;-2116.4018385762474;5.999772565701278e-05;-6.123173079686239e-07;0.0;-6.123173079686239e-07
0.35600000000000026;-512810540.0;-504344929.0;-5.0;-2116.4014185825768;-2116.4017785785218;5.999755057928269e-05;-4.014282239950262e-07;0.0;-4.014282239950262e-07
0.36000000000000026;-521276146.0;-512810535.0;-5.0;-2116.4014185832766;-2116.401718580971;-1.6057128959801048e-09;-1.7496404325356707e-07;0.0;-1.7496404325356707e-07
0.36400000000000027;-529741752.0;-521276141.0;-5.0;-2116.401418583229;-2116.401718582577;-6.998561730142683e-10;1.1937117960769683e-08;0.0;1.1937117960769683e-08
0.36800000000000027;-538207358.0;-529741747.0;-5.0;-2116.40141858299;-2116.4017185832768;4.774847184307873e-11;5.968558980384842e-08;0.0;5.968558980384842e-08
0.3720000000000003;-546672964.0;-538207353.0;-5.0;-2116.4014185827673;-2116.401718583229;2.3874235921539366e-10;5.5706550483591855e-08;0.0;5.5706550483591855e-08
0.3760000000000003;-555138570.0;-546672959.0;-5.0;-2116.4014185825768;-2116.4017185829903;2.2282620193436742e-10;4.7634785005357116e-08;0.0;4.7634785005357116e-08
0.3800000000000003;-563604176.0;-555138565.0;-5.0;-2116.4014185825613;-2116.4017185827674;1.9053914002142847e-10;3.865352482534945e-09;0.0;3.865352482534945e-09
0.3840000000000003;-572069783.0;-563604171.0;-5.0;-2116.4014185825613;-2116.401718582577;1.546140993013978e-11;0.0;0.0;0.0
0.3880000000000003;-580535389.0;-572069777.0;-6.0;-2116.4014185825295;-2116.4017185825614;-5.999999984851456e-05;7.958078640513122e-09;0.0;7.958078640513122e-09
0.3920000000000003;-589000995.0;-580535384.0;-5.0;-2116.4014185826404;-2116.4017785825613;6.0000031680829125e-05;-2.773958840407431e-08;0.0;-2.773958840407431e-08
0.3960000000000003;-597466601.0;-589000990.0;-5.0;-2116.4014185826722;-2116.4017185825296;-1.1095835361629725e-10;-7.958078640513122e-09;0.0;-7.958078640513122e-09
0.4000000000000003;-605932207.0;-597466596.0;-5.0;-2116.4014185826086;-2116.4017185826406;-3.183231456205249e-11;1.5916157281026244e-08;0.0;1.5916157281026244e-08
0.4040000000000003;-614397813.0;-605932202.0;-5.0;-2116.401418582545;-2116.4017185826724;6.366462912410498e-11;1.5916157281026244e-08;0.0;1.5916157281026244e-08
0.4080000000000003;-622863419.0;-614397808.0;-5.0;-2116.4014185826086;-2116.4017185826087;6.366462912410498e-11;-1.5916157281026244e-08;0.0;-1.5916157281026244e-08
0.4120000000000003;-631329025.0;-622863414.0;-5.0;-2116.4014185826722;-2116.401718582545;-6.366462912410498e-11;-1.5916157281026244e-08;0.0;-1.5916157281026244e-08
0.4160000000000003;-639794631.0;-631329020.0;-5.0;-2116.401418582545;-2116.4017185826087;-6.366462912410498e-11;3.183231456205249e-08;0.0;3.183231456205249e-08
0.4200000000000003;-648260237.0;-639794626.0;-5.0;-2116.4014185826086;-2116.4017185826724;1.2732925824820995e-10;-1.5916157281026244e-08;0.0;-1.5916157281026244e-08
0.4240000000000003;-656725843.0;-648260232.0;-5.0;-2116.4014185826722;-2116.401718582545;-6.366462912410498e-11;-1.5916157281026244e-08;0.0;-1.5916157281026244e-08
0.4280000000000003;-665191449.0;-656725838.0;-5.0;-2116.401418582545;-2116.4017185826087;-6.366462912410498e-11;3.183231456205249e-08;0.0;3.183231456205249e-08
0.43200000000000033;-673656950.0;-665191444.0;-5.0;-2116.3750823578366;-2116.4017185826724;1.2732925824820995e-10;6.584056177075581;0.0;6.584056177075581
0.43600000000000033;-682121664.0;-673657050.0;100.0;-2116.178464718546;-2116.401718582545;0.03263622470831251;49.154409822676826;0.0;49.154409822676826
0.44000000000000034;-690583527.0;-682122526.0;862.0;-2115.46556626699;-2116.3690823578368;0.24233763929078123;178.22461288892555;0.0;178.22461288892555
0.44400000000000034;-699037699.0;-690587032.0;3505.0;-2113.542989747206;-2116.126744718546;0.8714784515559586;480.64412994608574;0.0;480.64412994608574
0.44800000000000034;-707473046.0;-699048053.0;10354.0;-2108.8365066242027;-2115.25526626699;2.333516519784098;1176.6207807507953;0.0;1176.6207807507953
0.45200000000000035;-715866523.0;-707499739.0;26693.0;-2098.3693009769086;-2112.921749747206;5.686823123003251;2616.8014118235305;0.0;2616.8014118235305
0.45600000000000035;-724179219.0;-715928678.0;62155.0;-2078.173837629781;-2107.2349266242027;12.594925647294076;5048.865836781943;83.33333333333333;4965.5325034486095
0.46000000000000035;-732356692.0;-724307238.0;128019.0;-2044.3680010487074;-2094.6400009769086;24.147303347127945;8451.45914526836;83.33333333333333;8368.125811935026
0.46400000000000036;-740332348.0;-732589208.0;232516.0;-1993.914122056478;-2070.4926976297807;40.07565658107319;12613.469748057356;250.0;12363.469748057356
0.46800000000000036;-748031807.0;-740710876.0;378528.0;-1924.864516317001;-2030.4170410487075;59.21459899222941;17262.401434869218;333.3333333333333;16929.068101535886
0.47200000000000036;-755377235.0;-748595685.0;563878.0;-1836.357023731299;-1971.202442056478;80.17060573947697;22126.87314642551;750.0;21376.87314642551
0.47600000000000037;-762290936.0;-756159812.0;782577.0;-1728.4250858308985;-1891.031836317001;101.62943258570203;26982.984475100126;1166.6666666666667;25816.317808433458
0.48000000000000037;-768698314.0;-763317421.0;1026485.0;-1601.844410575146;-1789.402403731299;122.56641790040044;31645.16881393814;1833.3333333333333;29811.83548060481
0.4840000000000004;-774532292.0;-769984764.0;1286450.0;-1458.4943946529277;-1666.8359858308986;142.17857525575255;35837.503980554575;2583.3333333333335;33254.17064722124
0.4880000000000004;-779739544.0;-776083393.0;1551101.0;-1301.813005039967;-1524.657410575146;159.22907592221827;39170.34740324016;3583.3333333333335;35587.01406990682
0.4920000000000004;-784285502.0;-781545106.0;1805562.0;-1136.489309966452;-1365.4283346529278;171.94904961296083;41330.923768378736;4666.666666666667;36664.25710171207
0.4960000000000004;-788157281.0;-786319023.0;2033521.0;-967.9448617440918;-1193.479285039967;179.00123507351486;42136.11205559008;5916.666666666667;36219.44538892341
0.5000000000000003;-791365818.0;-790376935.0;2219654.0;-802.1341702154426;-1014.4780499664521;179.71242822236036;41452.67288216229;7166.666666666667;34286.006215495625
0.5040000000000003;-793945605.0;-793715997.0;2350179.0;-644.9466128803768;-834.7656217440917;173.64219152864916;39296.88933376644;8583.333333333334;30713.55600043311
0.5080000000000003;-795950631.0;-796360490.0;2414885.0;-501.2565345174;-661.1234302154426;161.06991733506572;35922.51959074422;10000.0;25922.519590744214
