Zeit[sec];Sollposition[°];Istposition[°];Positionsschleppfehler[°];Sollgeschwindigkeit[°/s];Istgeschwindigkeit[°/s];Geschwindigkeitsdifferenz[°/s];Sollbeschleunigung[°/s*s];Istbeschleunigung[°/s*s];Beschleunigungsdifferenz[°/s*s]
0.0;0.0;5.0;-5.0;-0.0;-0.00021499999999999997;0.0;0.0;0.0;0.0
0.004;0.0;5.0;-5.0;-0.0;-0.00021499999999999997;0.0;0.0;0.0;0.0
0.008;0.0;5.0;-5.0;-0.0;-0.00021499999999999997;0.0;0.0;0.0;0.0
0.012;0.0;5.0;-5.0;-0.0;-0.00021499999999999997;0.0;0.0;0.0;0.0
0.016;0.0;5.0;-5.0;-0.0;-0.00021499999999999997;0.0;0.0;0.0;0.0
0.02;0.0;5.0;-5.0;-0.0;-0.00021499999999999997;0.0;0.0;0.0;0.0
0.024;0.0;5.0;-5.0;-0.0;-0.00021499999999999997;0.0;0.0;0.0;0.0
0.028;0.0;5.0;-5.0;-0.0;-0.00021499999999999997;0.0;0.0;0.0;0.0
0.032;0.0;5.0;-5.0;-0.0;-0.00021499999999999997;0.0;0.0;0.0;0.0
0.036000000000000004;0.0;5.0;-5.0;-0.0;-0.00021499999999999997;0.0;0.0;0.0;0.0
0.04000000000000001;0.0;5.0;-5.0;-0.0;-0.00021499999999999997;0.0;0.0;0.0;0.0
0.04400000000000001;0.0;5.0;-5.0;-0.0;-0.00021499999999999997;0.0;0.0;0.0;0.0
0.048000000000000015;0.0;5.0;-5.0;-0.0;-0.00021499999999999997;0.0;0.0;0.0;0.0
0.05200000000000002;-508.0;5.0;-5.0;-0.12719098634185058;-0.00021499999999999997;0.0;-31.797746585462644;0.0;-31.797746585462644
0.05600000000000002;-5578.0;5.0;-513.0;-1.2675437626192132;-0.00021499999999999997;-0.14903498634185058;-285.08819406934066;0.0;-285.08819406934066
0.060000000000000026;-30499.0;-591.0;-4987.0;-6.2302346240698885;-0.14924998634185058;-1.3327347762773625;-1240.672715362669;0.0;-1240.672715362669
0.06400000000000003;-112872.0;-6518.0;-23981.0;-20.593049774259406;-1.481984762619213;-5.779432861450676;-3590.7037875473793;0.0;-3590.7037875473793
0.06800000000000003;-321836.0;-35563.0;-77309.0;-52.24114393056809;-7.261417624069889;-16.655919150189515;-7912.023539077172;0.0;-7912.023539077172
0.07200000000000004;-758883.0;-131232.0;-190604.0;-109.26161952390405;-23.917336774259404;-36.51977915630869;-14255.118898333989;-83.33333333333333;-14171.785565000655
0.07600000000000004;-1548258.0;-372980.0;-385903.0;-197.34388152543272;-60.43711593056809;-65.41833259333595;-22020.56550038217;-166.66666666666666;-21853.898833715502
0.08000000000000004;-2824577.0;-876401.0;-671857.0;-319.0796767416835;-125.85544852390404;-100.37828400152867;-30433.948804062693;-500.0;-29933.948804062693
0.08400000000000005;-4726534.0;-1781335.0;-1043242.0;-475.48917151006236;-226.2337325254327;-137.70535021625076;-39102.37369209471;-1000.0;-38102.37369209471
0.08800000000000005;-7395314.0;-3237091.0;-1489443.0;-667.1950328335815;-363.9390827416835;-175.59613776837887;-47926.46533087979;-1916.6666666666667;-46009.79866421313
0.09200000000000005;-10970157.0;-5395231.0;-2000083.0;-893.7108186402479;-539.5352205100623;-213.66338132351916;-56628.94645166659;-3000.0;-53628.94645166659
0.09600000000000006;-15579453.0;-8408025.0;-2562132.0;-1152.323871578416;-753.1986018335815;-250.68389280666634;-64653.26323454201;-4333.333333333333;-60319.92990120868
0.10000000000000006;-21331944.0;-12423554.0;-3155899.0;-1438.1226683581406;-1003.8824946402478;-284.1450339381681;-71449.69919493116;-6000.0;-65449.699194931156
0.10400000000000006;-28309178.0;-17575664.0;-3756280.0;-1744.3084565386137;-1288.027528578416;-311.6151797797247;-76546.44704511827;-7916.666666666667;-68629.7803784516
0.10800000000000007;-36558348.0;-23974234.0;-4334944.0;-2062.2922431804727;-1599.6427083581407;-331.0683401804729;-79495.94666046476;-10166.666666666666;-69329.2799937981
0.11200000000000007;-46088551.0;-31697078.0;-4861270.0;-2382.5506145851678;-1930.7110485386136;-340.6158046418593;-80064.59285117376;-12500.0;-67564.59285117376
0.11600000000000008;-56870750.0;-40782385.0;-5306166.0;-2695.549659229103;-2271.326853180473;-339.3888994046947;-78249.76116098378;-15083.333333333334;-63166.42782765045
0.12000000000000008;-68838445.0;-51225248.0;-5645502.0;-2991.9237855610886;-2610.7157525851676;-327.59049264393525;-74093.53158299644;-17750.0;-56343.53158299643
0.12400000000000008;-81890759.0;-62978472.0;-5859973.0;-3263.07823594886;-2938.306245229103;-305.59637933198564;-67788.61259694281;-20416.666666666668;-47371.945930276146
0.12800000000000009;-95900386.0;-75954082.0;-5936677.0;-3502.406644254657;-3243.9026245610885;-274.45272238777125;-59832.10207644924;-22916.666666666668;-36915.43540978258
0.1320000000000001;-110723974.0;-90027503.0;-5872883.0;-3705.8966721965153;-3518.3553469488597;-236.58526630579718;-50872.50698546461;-25250.0;-25622.50698546461
0.1360000000000001;-126211669.0;-105047265.0;-5676709.0;-3871.9236767284274;-3754.940613254657;-195.05454594185858;-41506.751132978025;-27333.333333333332;-14173.417799644692
0.1400000000000001;-142215468.0;-120847245.0;-5364424.0;-4000.949614292313;-3949.9951591965155;-152.5987495319123;-32256.48439097142;-29250.0;-3006.4843909714227
0.1440000000000001;-158596262.0;-137257620.0;-4957848.0;-4095.198262554363;-4102.593908728428;-111.54316956388539;-23562.16206551244;-30750.0;7187.837934487561
0.1480000000000001;-175228913.0;-154114168.0;-4482094.0;-4158.1624162258795;-4214.137078292313;-73.79122626204935;-15741.038417879168;-32000.0;16258.961582120832
0.1520000000000001;-192007569.0;-171265881.0;-3963032.0;-4194.664007818275;-4287.9283045543625;-40.6444876715168;-9125.397898098981;-32833.333333333336;23707.935435234354
0.1560000000000001;-208852559.0;-188580172.0;-3427397.0;-4211.247103876438;-4328.572792225879;-13.469286592396202;-4145.774014540621;-33416.666666666664;29270.892652126044
0.16000000000000011;-225714032.0;-205948340.0;-2904219.0;-4215.368203388977;-4342.0420788182755;5.9135579418380075;-1030.2748781348328;-33666.666666666664;32636.39178853183
0.16400000000000012;-242568277.0;-223292854.0;-2421178.0;-4213.5610222200075;-4336.1285208764375;16.649663487460202;451.7952922424229;-33833.333333333336;34285.12862557576
0.16800000000000012;-259409127.0;-240570769.0;-1997508.0;-4210.212309097095;-4319.478857388977;20.02499116896979;837.1782807280397;-33833.333333333336;34670.511614061375
0.17200000000000013;-276239137.0;-257768584.0;-1640543.0;-4207.502341703538;-4299.4538662200075;18.698208122912547;677.4918483893089;-33750.0;34427.49184838931
0.17600000000000013;-293063237.0;-274891606.0;-1347531.0;-4206.024731760415;-4280.755658097095;15.309483393556548;369.4024857807108;-33583.333333333336;33952.735819114045
0.18000000000000013;-309885443.0;-291953390.0;-1109847.0;-4205.551302017749;-4265.446174703538;11.698021943123422;118.35743566666679;-33416.666666666664;33535.02410233333
0.18400000000000014;-326707928.0;-308968382.0;-917061.0;-4205.6211246971225;-4253.748152760415;8.763227742666459;-17.455669843457144;-33333.333333333336;33315.87766348988
0.18800000000000014;-343531352.0;-325948321.0;-759607.0;-4205.855627662259;-4244.9849250177485;6.700699320625972;-58.62574128423148;-33250.0;33191.37425871577
0.19200000000000014;-360355556.0;-342901457.0;-629895.0;-4206.050817829576;-4238.284225697123;5.343113034863563;-48.79754182911711;-33166.666666666664;33117.86912483755
0.19600000000000015;-377180146.0;-359833221.0;-522335.0;-4206.147280998882;-4232.941112662259;4.42988983268333;-24.115792326483643;-33083.333333333336;33059.21754100685
0.20000000000000015;-394004800.0;-376747265.0;-432881.0;-4206.163429281146;-4228.511222829576;3.750058830693888;-4.037070566027978;-33000.0;32995.96292943397
0.20400000000000015;-410829360.0;-393646309.0;-358491.0;-4206.139761945219;-4224.761163998882;3.182621717735856;5.91683398170062;-32833.333333333336;32839.25016731504
0.20800000000000016;-427653796.0;-410532623.0;-296737.0;-4206.10882867193;-4221.578542281146;2.6790893359266192;7.733318322380001;-32500.0;32507.733318322382
0.21200000000000016;-444478144.0;-427408220.0;-245576.0;-4206.086827144761;-4218.899452945219;2.230856273289646;5.500381792217013;-31916.666666666668;31922.167048458883
0.21600000000000016;-461302453.0;-444274894.0;-203250.0;-4206.0768885178495;-4216.66859667193;1.8420195271692137;2.4846567278018483;-31083.333333333332;31085.817990061136
0.22000000000000017;-478126756.0;-461134200.0;-168253.0;-4206.07561383347;-4214.82657714476;1.5148096269113012;0.31867109487393463;-30000.0;30000.318671094872
0.22400000000000017;-494951070.0;-477987447.0;-139309.0;-4206.078287418145;-4213.311767517849;1.2458666843795072;-0.6683961687485862;-28583.333333333332;28582.664937164584
0.22800000000000017;-511775397.0;-494835710.0;-115360.0;-4206.081494346359;-4212.06590083347;1.0271334153248972;-0.8017320535600447;-26916.666666666668;26915.864934613106
0.23200000000000018;-528599732.0;-511679865.0;-95532.0;-4206.083666066828;-4211.038767418145;0.8493970717854609;-0.5429301172625856;-25000.0;24999.457069882737
0.23600000000000018;-545424071.0;-528520622.0;-79110.0;-4206.084580784227;-4210.189370346359;0.7039742795313941;-0.22867934967507608;-22750.0;22749.771320650325
0.24000000000000019;-562248411.0;-545358563.0;-65508.0;-4206.084639808764;-4209.485396066828;0.5839712826009418;-0.014756134305571322;-20333.333333333332;20333.318577199025
0.2440000000000002;-579072749.0;-562194168.0;-54243.0;-4206.084336260196;-4208.901424784227;0.48433597546227247;0.0758871419748175;-17750.0;17750.075887141975
0.2480000000000002;-595897085.0;-579027836.0;-44913.0;-4206.0840075666965;-4208.417088808765;0.40149354856839636;0.08217337494897947;-15166.666666666666;15166.748840041615
0.25200000000000017;-612721421.0;-595859898.0;-37187.0;-4206.0837975979775;-4208.015595260196;0.33254669349935284;0.052492179747787304;-12583.333333333334;12583.385825513082
0.25600000000000017;-629545757.0;-612690630.0;-30791.0;-4206.083717094691;-4207.683048566697;0.2752379687190114;0.020125821720284875;-10000.0;10000.02012582172
0.2600000000000002;-646370093.0;-629520261.0;-25496.0;-4206.083719670563;-4207.407810597978;0.22776550328762823;-0.0006439681783376727;-7583.333333333333;7583.332689365155
0.2640000000000002;-663194429.0;-646348981.0;-21112.0;-4206.083754356262;-4207.18004509469;0.18850942412700533;-0.008671424666317762;-5416.666666666667;5416.657995242001
0.2680000000000002;-680018765.0;-663176947.0;-17482.0;-4206.083788290638;-4206.991535670563;0.1560553143008292;-0.008483594001518213;-3583.3333333333335;3583.324849739332
0.2720000000000002;-696843101.0;-680004288.0;-14477.0;-4206.0838086729045;-4206.835480356262;0.12918106562483445;-0.005095566621093894;-2166.6666666666665;2166.6615711000454
0.2760000000000002;-713667437.0;-696831113.0;-11988.0;-4206.083815695991;-4206.706299290638;0.10700661773353204;-0.0017557715636939975;-916.6666666666666;916.6649108951029
0.2800000000000002;-730491773.0;-713657510.0;-9927.0;-4206.0838146550705;-4206.599292672904;0.0886159769133883;0.00026023008103948087;-83.33333333333333;83.33359356341437
0.2840000000000002;-747316109.0;-730483552.0;-8221.0;-4206.0838108088465;-4206.510676695991;0.07335904091996781;0.0009615559974918142;583.3333333333334;-583.3323717773359
0.2880000000000002;-764140445.0;-747309301.0;-6808.0;-4206.08380734758;-4206.437317655071;0.06076284622395178;0.0008653166787553346;833.3333333333334;-833.3324680166546
0.2920000000000002;-780964781.0;-764134807.0;-5638.0;-4206.0838053915095;-4206.376554808847;0.050313461267251114;0.0004890175659966189;1000.0;-999.999510982434
0.2960000000000002;-797789117.0;-780960111.0;-4670.0;-4206.083804799069;-4206.3262413475795;0.04162595606976538;0.00014811007531534415;1000.0;-999.9998518899247
0.3000000000000002;-814613453.0;-797785249.0;-3868.0;-4206.0838049809;-4206.28461539151;0.034486592440771346;-4.545768206298817e-05;916.6666666666666;-916.6667121243487
0.3040000000000002;-831437789.0;-814610249.0;-3204.0;-4206.0838054001215;-4206.250128799069;0.02855181816903496;-0.00010480539458512794;750.0;-750.0001048053946
0.3080000000000002;-848262125.0;-831435135.0;-2654.0;-4206.083805750008;-4206.2215769809;0.023649580778510426;-8.747156243771315e-05;583.3333333333334;-583.3334208048958
0.3120000000000002;-865086461.0;-848259926.0;-2199.0;-4206.083805935787;-4206.197927400121;0.0195646501133524;-4.644471118808724e-05;416.6666666666667;-416.6667131113779
0.3160000000000002;-881910797.0;-865084639.0;-1822.0;-4206.08380598342;-4206.178362750008;0.016210814221267356;-1.1908241503988393e-05;333.3333333333333;-333.3333452415748
0.32000000000000023;-898735133.0;-881909287.0;-1510.0;-4206.08380595752;-4206.162151935787;0.013415952367722639;6.474920155596919e-06;333.3333333333333;-333.33332685841316
0.32400000000000023;-915559469.0;-898733881.0;-1252.0;-4206.083805912467;-4206.148735983419;0.01109402589918318;1.1263182386755943e-05;250.0;-249.9999887368176
0.32800000000000024;-932383805.0;-915558431.0;-1038.0;-4206.083805877332;-4206.13764195752;0.009202045052916219;8.783672456047498e-06;250.0;-249.99999121632754
0.33200000000000024;-949208141.0;-932382944.0;-861.0;-4206.08380585992;-4206.128439912467;0.007611035134686972;4.353069016360678e-06;166.66666666666666;-166.66666231359764
0.33600000000000024;-966032477.0;-949207427.0;-714.0;-4206.083805856376;-4206.120828877332;0.006321017412119545;8.860752132022753e-07;166.66666666666666;-166.66666578059144
0.34000000000000025;-982856813.0;-966031885.0;-592.0;-4206.083805859609;-4206.11450785992;0.0052460035440162756;-8.0831341620069e-07;166.66666666666666;-166.66666747498007
0.34400000000000025;-999681149.0;-982856322.0;-491.0;-4206.083805864491;-4206.109261856376;0.004342996767263685;-1.2205418897792697e-06;83.33333333333333;-83.33333455387522
0.34800000000000025;-1016505485.0;-999680741.0;-408.0;-4206.083805867942;-4206.104918859609;0.003568995117348095;-8.626557246316224e-07;83.33333333333333;-83.33333419598905
0.35200000000000026;-1033329821.0;-1016505146.0;-339.0;-4206.083805869559;-4206.101349864492;0.0029669965497305384;-4.042703949380666e-07;0.0;-4.042703949380666e-07
0.35600000000000026;-1050154157.0;-1033329539.0;-282.0;-4206.083805869807;-4206.098382867942;0.00245099838321039;-6.207301339600235e-08;83.33333333333333;-83.33333339540634
0.36000000000000026;-1066978493.0;-1050153922.0;-235.0;-4206.0838058694035;-4206.095931869559;0.0020209997510391986;1.0095391189679503e-07;83.33333333333333;-83.33333323237942
0.36400000000000027;-1083802829.0;-1066978297.0;-196.0;-4206.083805868969;-4206.093910869808;0.0016770004040154163;1.0868461686186492e-07;83.33333333333333;-83.33333322464871
0.36800000000000027;-1100627165.0;-1083802665.0;-164.0;-4206.083805868501;-4206.092233869404;0.0013760004349023802;1.1687006917782128e-07;0.0;1.1687006917782128e-07
0.3720000000000003;-1117451501.0;-1100627028.0;-137.0;-4206.083805868439;-4206.090857868969;0.0011610004676185781;1.546140993013978e-08;0.0;1.546140993013978e-08
0.3760000000000003;-1134275837.0;-1117451386.0;-115.0;-4206.083805868439;-4206.089696868501;0.0009460000619583298;0.0;0.0;0.0
0.3800000000000003;-1151100173.0;-1134275741.0;-96.0;-4206.083805868439;-4206.088750868439;0.0008170000000973232;0.0;0.0;0.0
0.3840000000000003;-1167924509.0;-1151100092.0;-81.0;-4206.083805868501;-4206.087933868439;0.0006449999991673394;-1.546140993013978e-08;0.0;-1.546140993013978e-08
0.3880000000000003;-1184748845.0;-1167924441.0;-68.0;-4206.083805868501;-4206.08728886844;0.0005589999382209498;0.0;0.0;0.0
0.3920000000000003;-1201573181.0;-1184748787.0;-58.0;-4206.083805868501;-4206.086729868502;0.00043000000005122274;0.0;0.0;0.0
0.3960000000000003;-1218397517.0;-1201573132.0;-49.0;-4206.083805868501;-4206.086299868502;0.00038700000004610047;0.0;0.0;0.0
0.4000000000000003;-1235221751.0;-1218397475.0;-42.0;-4206.058303638389;-4206.0859128685015;0.0003010000000358559;6.375557528144782;0.0;6.375557528144782
0.4040000000000003;-1252045224.0;-1235221817.0;66.0;-4205.86791232972;-4206.0856118685015;0.030146230113132333;47.59782716723748;0.0;47.59782716723748
0.4080000000000003;-1268865935.0;-1252046038.0;814.0;-4205.1775893777585;-4206.055465638388;0.22255530866823392;172.5807379903017;0.0;172.5807379903017
0.4120000000000003;-1285679070.0;-1268869369.0;3434.0;-4203.28354142328;-4205.83291032972;0.8029829519618943;473.5119886195207;0.0;473.5119886195207
0.4160000000000003;-1302473009.0;-1285689488.0;10418.0;-4198.484554664374;-4205.029927377758;2.194359954477477;1199.7466897266804;0.0;1199.7466897266804
0.4200000000000003;-1319222902.0;-1302500830.0;27821.0;-4187.473020315295;-4202.835567423281;5.547315758906734;2752.8835872697073;83.33333333333333;2669.550253936374
0.4240000000000003;-1335886062.0;-1319289983.0;67081.0;-4165.789817372919;-4197.288251664374;12.699714349078931;5420.800735593957;83.33333333333333;5337.467402260624
0.4280000000000003;-1352402159.0;-1336028337.0;142275.0;-4129.024138752928;-4184.588537315295;24.916544942376277;9191.419654997844;83.33333333333333;9108.08632166451
0.43200000000000033;-1368696799.0;-1352667024.0;264865.0;-4073.659771226175;-4159.671992372919;42.037048619990856;13841.091881688157;166.66666666666666;13674.42521502149
0.43600000000000033;-1384686277.0;-1369137563.0;440764.0;-3997.369153507008;-4117.634943752928;62.92802452675278;19072.654429791783;416.6666666666667;18655.987763125115
0.44000000000000034;-1400282427.0;-1385356390.0;670113.0;-3899.0373875567;-4054.706919226175;86.1526247191673;24582.941487576933;750.0;23832.941487576933
0.44400000000000034;-1415396689.0;-1401230607.0;948180.0;-3778.5653019769543;-3968.554294507008;110.2886469503078;30118.021394936477;1250.0;28868.021394936477
0.44800000000000034;-1429943427.0;-1416663669.0;1266980.0;-3636.684444134049;-3858.2656475567;134.1804855797459;35470.21446072631;1916.6666666666667;33553.54779405965
0.45200000000000035;-1443844588.0;-1431560009.0;1616582.0;-3475.290156166342;-3724.085161976954;156.9137438429052;40348.57199192674;2833.3333333333335;37515.238658593415
0.45600000000000035;-1457036095.0;-1445828694.0;1984106.0;-3297.8764188588325;-3567.171418134049;177.1978199677069;44353.43432687739;3833.3333333333335;40520.10099354406
0.46000000000000035;-1469472160.0;-1459388588.0;2352493.0;-3109.0162135102437;-3389.973598166342;193.25437830750934;47215.051337147204;5000.0;42215.051337147204
0.46400000000000036;-1481124815.0;-1472175464.0;2703304.0;-2913.1636502882498;-3196.7192198588327;203.94507834858905;48963.140805498486;6416.666666666667;42546.474138831814
0.46800000000000036;-1491980156.0;-1484146560.0;3021745.0;-2713.8350924524275;-2992.7741415102437;209.5455262219939;49832.139458955564;7916.666666666667;41915.4727922889
0.47200000000000036;-1502033627.0;-1495279474.0;3299318.0;-2513.367615286115;-2783.22861528825;211.26419683582208;50116.86929157816;9500.0;40616.86929157816
0.47600000000000037;-1511285627.0;-1505567331.0;3533704.0;-2312.9999424788907;-2571.9644184524277;210.54607516631268;50091.91820180604;11083.333333333334;39008.5848684727
0.48000000000000037;-1519738257.0;-1515013004.0;3727377.0;-2113.1572906167903;-2361.418343286115;208.6956118072244;49960.6629655251;12750.0;37210.6629655251
0.4840000000000004;-1527393575.0;-1523623894.0;3885637.0;-1913.829389321314;-2152.7227314788906;206.64783186210025;49831.975323869076;14416.666666666666;35415.308657202404
0.4880000000000004;-1534253309.0;-1531408193.0;4014618.0;-1714.9334254019757;-1946.0748996167904;204.87408429547645;49723.99097983458;16083.333333333334;33640.65764650125
0.4920000000000004;-1540319511.0;-1538372996.0;4119687.0;-1516.5504219188867;-1741.200815321314;203.41393091933833;49595.75087077224;17666.666666666668;31929.084204105566
0.4960000000000004;-1545596190.0;-1544524143.0;4204632.0;-1319.169805744555;-1537.7868844019756;202.03563848308886;49345.15404358291;19250.0;30095.15404358291
0.5000000000000003;-1550093543.0;-1549867147.0;4270957.0;-1124.338010714448;-1335.7512459188868;200.23259117433167;48707.94875752676;20833.333333333332;27874.615424193435
0.5040000000000003;-1553834563.0;-1554409221.0;4315678.0;-935.2551616355676;-1135.518654744555;196.75479803010694;47270.71226972012;22416.666666666668;24854.045603053455
0.5080000000000003;-1556859817.0;-1558164276.0;4329713.0;-756.3133530932959;-938.7638567144481;189.68635407888053;44735.452135567924;24000.0;20735.452135567924
