Zeit[sec];Sollposition[°];Istposition[°];Positionsschleppfehler[°];Sollgeschwindigkeit[°/s];Istgeschwindigkeit[°/s];Geschwindigkeitsdifferenz[°/s];Sollbeschleunigung[°/s*s];Istbeschleunigung[°/s*s];Beschleunigungsdifferenz[°/s*s]
0.0;-9979199999.0;-9979199995.0;-4.0;0.0;-0.00023999999999999998;0.0;0.0;0.0;0.0
0.004;-9979199999.0;-9979199995.0;-4.0;0.0;-0.00023999999999999998;0.0;0.0;0.0;0.0
0.008;-9979199999.0;-9979199995.0;-4.0;0.0;-0.00023999999999999998;0.0;0.0;0.0;0.0
0.012;-9979199999.0;-9979199995.0;-4.0;0.0;-0.00023999999999999998;0.0;0.0;0.0;0.0
0.016;-9979199999.0;-9979199995.0;-4.0;0.0;-0.00023999999999999998;0.0;0.0;0.0;0.0
0.02;-9979199999.0;-9979199995.0;-4.0;0.0;-0.00023999999999999998;0.0;0.0;0.0;0.0
0.024;-9979199999.0;-9979199995.0;-4.0;0.0;-0.00023999999999999998;0.0;0.0;0.0;0.0
0.028;-9979199999.0;-9979199995.0;-4.0;0.0;-0.00023999999999999998;0.0;0.0;0.0;0.0
0.032;-9979199999.0;-9979199995.0;-4.0;0.0;-0.00023999999999999998;0.0;0.0;0.0;0.0
0.036000000000000004;-9979199999.0;-9979199995.0;-4.0;0.0;-0.00023999999999999998;0.0;0.0;0.0;0.0
0.04000000000000001;-9979199999.0;-9979199995.0;-4.0;0.0;-0.00023999999999999998;0.0;0.0;0.0;0.0
0.04400000000000001;-9979199999.0;-9979199995.0;-4.0;0.0;-0.00023999999999999998;0.0;0.0;0.0;0.0
0.048000000000000015;-9979199999.0;-9979199995.0;-4.0;0.0;-0.00023999999999999998;0.0;0.0;0.0;0.0
0.05200000000000002;-9979200595.0;-9979199995.0;-4.0;-0.1487737157761518;-0.00023999999999999998;0.0;-37.193428944037954;0.0;-37.193428944037954
0.05600000000000002;-9979206525.0;-9979199995.0;-600.0;-1.4826301771284662;-0.00023999999999999998;-0.18453371577615182;-333.4641153380786;0.0;-333.4641153380786
0.060000000000000026;-9979395332.0;-9979200734.0;-5791.0;-47.201625850008675;-0.18477371577615181;-1.6453164613523146;-11429.748918220052;0.0;-11429.748918220052
0.06400000000000003;-9979736431.0;-9979208054.0;-187278.0;-85.27489898769063;-1.8300901771284663;-56.608215672880206;-9518.31828442049;0.0;-9518.31828442049
0.06800000000000003;-9980363362.0;-9979441807.0;-294624.0;-156.73271536551226;-58.438305850008675;-44.51403313768196;-17864.454094455406;-83.33333333333333;-17781.120761122074
0.07200000000000004;-9981311674.0;-9979853616.0;-509746.0;-237.0778758420932;-102.95233898769064;-84.36513637782161;-20086.290119145233;-416.6666666666667;-19669.623452478565
0.07600000000000004;-9982654377.0;-9980602885.0;-708789.0;-335.6757947641015;-187.31747536551225;-92.28774047658092;-24649.47973050208;-833.3333333333334;-23816.146397168748
0.08000000000000004;-9984556473.0;-9981721305.0;-933072.0;-475.523929909191;-279.6052158420932;-112.05489892200836;-34962.03378627237;-1500.0;-33462.03378627237
0.08400000000000005;-9987198202.0;-9983287945.0;-1268528.0;-660.4323935545943;-391.66011476410154;-159.97549514508944;-46227.11591135083;-2166.6666666666665;-44060.44924468417
0.08800000000000005;-9990738371.0;-9985494487.0;-1703715.0;-885.0421135296821;-551.635609909191;-211.01968364540335;-56152.42999377193;-3250.0;-52902.42999377193
0.09200000000000005;-9995309223.0;-9988545108.0;-2193263.0;-1142.7128101548203;-762.6552935545943;-253.98259997508774;-64417.674156284564;-4500.0;-59917.674156284564
0.09600000000000006;-10001034100.0;-9992611659.0;-2697564.0;-1431.2194178736463;-1016.6378935296821;-287.92875662513825;-72126.6519297065;-6083.333333333333;-66043.31859637317
0.10000000000000006;-10008019816.0;-9997829925.0;-3204175.0;-1746.4286992903792;-1304.5666501548203;-318.9032677188261;-78802.32035418322;-8000.0;-70802.32035418322
0.10400000000000006;-10016329469.0;-10004323804.0;-3696012.0;-2077.413206934214;-1623.4699178736464;-344.7195014167328;-82746.1269109587;-10250.0;-72496.1269109587
0.10800000000000007;-10025997488.0;-10012196561.0;-4132908.0;-2417.004722504418;-1968.1894192903792;-357.1982676438347;-84897.87889255103;-12750.0;-72147.87889255103
0.11200000000000007;-10037032990.0;-10021498111.0;-4499377.0;-2758.8752918568925;-2325.387686934214;-361.57965557020407;-85467.64233811859;-15416.666666666666;-70050.97567145193
0.11600000000000008;-10049396937.0;-10032245980.0;-4787010.0;-3090.9866954981376;-2686.967342504418;-359.1285493524747;-83027.85091031126;-18166.666666666668;-64861.18424364459
0.12000000000000008;-10063011586.0;-10044430363.0;-4966574.0;-3403.662156092577;-3046.0958918568926;-342.88524364124487;-78168.86514860982;-21000.0;-57168.865148609824
0.12400000000000008;-10077776935.0;-10057986287.0;-5025299.0;-3691.3368513367736;-3388.9811354981375;-316.1989605944391;-71918.67381104919;-23750.0;-48168.673811049186
0.12800000000000009;-10093570391.0;-10072807007.0;-4969928.0;-3948.363792723041;-3705.1800960925766;-284.35243524419684;-64256.73534656687;-26416.666666666668;-37840.0686799002
0.1320000000000001;-10110247148.0;-10088765137.0;-4805254.0;-4169.189211052796;-3989.5325313367734;-247.14650138626757;-55206.35458243873;-28833.333333333332;-26373.021249105404
0.1360000000000001;-10127653974.0;-10105711853.0;-4535295.0;-4351.706361188453;-4236.679032723041;-204.62787832975482;-45629.28753391429;-31083.333333333332;-14545.954200580962
0.1400000000000001;-10145644718.0;-10123477080.0;-4176894.0;-4497.685598579996;-4441.306911052796;-161.01309013565697;-36494.80934788562;-33000.0;-3494.809347885621
0.1440000000000001;-10164076707.0;-10141886360.0;-3758358.0;-4607.997065122714;-4602.320001188453;-120.86707739154281;-27577.866635679584;-34583.333333333336;7005.466697653752
0.1480000000000001;-10182820879.0;-10160779108.0;-3297599.0;-4686.042783979322;-4723.187078579996;-82.66592654271881;-19511.42971415197;-35833.333333333336;16321.903619181363
0.1520000000000001;-10201782626.0;-10180002520.0;-2818359.0;-4740.436580865045;-4805.853005122714;-49.29131885660718;-13598.449221430656;-36750.0;23151.550778569344
0.1560000000000001;-10220890201.0;-10199423097.0;-2359529.0;-4776.893626973358;-4855.144323979322;-26.86399688572328;-9114.26152707827;-37500.0;28385.73847292173
0.16000000000000011;-10240080725.0;-10218951130.0;-1939071.0;-4797.630570674871;-4882.008320865045;-11.22956610831261;-5184.235925378289;-37916.666666666664;32732.430741288375
0.16400000000000012;-10259305593.0;-10238524081.0;-1556644.0;-4806.216769097953;-4893.2378869733575;2.2086762984863526;-2146.5496057705877;-38083.333333333336;35936.783727562746
0.16800000000000012;-10278534996.0;-10258088197.0;-1217396.0;-4807.350591069947;-4891.029210674871;11.768681576918425;-283.45549299842787;-38166.666666666664;37883.211173668235
0.17200000000000013;-10297755861.0;-10277605239.0;-929757.0;-4805.216102593799;-4879.260529097953;16.124518028005696;533.6221190368633;-38166.666666666664;38700.288785703524
0.17600000000000013;-10316966131.0;-10297057783.0;-698078.0;-4802.567269790546;-4863.136011069947;16.035228476147495;662.2082008134385;-38166.666666666664;38828.8748674801
0.18000000000000013;-10336168809.0;-10316446186.0;-519945.0;-4800.669167373519;-4847.1007825937995;13.336812803253451;474.52560425676893;-38000.0;38474.52560425677
0.18400000000000014;-10355367798.0;-10335781241.0;-387568.0;-4799.746950712505;-4833.763969790546;9.840722417027791;230.55416525335204;-37833.333333333336;38063.887498586686
0.18800000000000014;-10374565922.0;-10355076933.0;-290865.0;-4799.530961157094;-4823.923247373518;6.724396661013088;53.997388852849326;-37750.0;37803.99738885285
0.19200000000000014;-10393764545.0;-10374345728.0;-220194.0;-4799.655360850004;-4817.198850712505;4.456249555410977;-31.0999232276572;-37750.0;37718.90007677234
0.19600000000000015;-10412963957.0;-10393596698.0;-167847.0;-4799.852882595643;-4812.742601157094;3.016420307089902;-49.38043640959222;-37500.0;37450.61956359041
0.20000000000000015;-10432163939.0;-10412835602.0;-128355.0;-4799.995217715364;-4809.726180850004;2.1719982543618244;-35.58377993022077;-37166.666666666664;37131.08288673645
0.20400000000000015;-10451364166.0;-10432065818.0;-98121.0;-4800.056478029859;-4807.5541825956425;1.671704880278412;-15.315078623871159;-36666.666666666664;36651.351588042795
0.20800000000000016;-10470564406.0;-10451289347.0;-74819.0;-4800.059902042911;-4805.882477715364;1.3368596855052601;-0.8560032629247871;-36083.333333333336;36082.47733007041
0.21200000000000016;-10489764560.0;-10470507529.0;-56877.0;-4800.038251333265;-4804.545618029859;1.0730959869479193;5.412677411413824;-35333.333333333336;35338.74601074475
0.21600000000000016;-10508964620.0;-10489721419.0;-43141.0;-4800.014788777092;-4803.472522042911;0.8458107096457752;5.865639043349802;-34333.333333333336;34339.19897237669
0.22000000000000017;-10528164620.0;-10508931925.0;-32695.0;-4799.999667880199;-4802.626711333265;0.6502225561735031;3.780224223191908;-33083.333333333336;33087.11355755653
0.22400000000000017;-10547364596.0;-10528139830.0;-24790.0;-4799.993745438756;-4801.976488777092;0.489420896892625;1.4806103606588294;-31416.666666666668;31418.147277027325
0.22800000000000017;-10566564572.0;-10547345778.0;-18818.0;-4799.993794141407;-4801.487067880199;0.3642424414429115;-0.012175662732261117;-29500.0;29499.987824337266
0.23200000000000018;-10585764557.0;-10566550269.0;-14303.0;-4799.996202466864;-4801.122825438756;0.2708512973485995;-0.6020813641498535;-27250.0;27249.39791863585
0.23600000000000018;-10604964553.0;-10585753676.0;-10881.0;-4799.998610398175;-4800.8519741414075;0.2029116745434294;-0.601982827674874;-24750.0;24749.398017172323
0.24000000000000019;-10624164554.0;-10604956272.0;-8281.0;-4800.000076728551;-4800.649062466864;0.15359206868924957;-0.3665825940970535;-22083.333333333332;22082.966750739237
0.2440000000000002;-10643364557.0;-10624158253.0;-6301.0;-4800.000593014738;-4800.495470398175;0.11733366962380387;-0.12907154678032384;-19333.333333333332;19333.20426178655
0.2480000000000002;-10662564560.0;-10643359765.0;-4792.0;-4800.000526000767;-4800.378136728551;0.0900237138130251;0.01675349267316051;-16583.333333333332;16583.350086826005
0.25200000000000017;-10681764562.0;-10662560917.0;-3643.0;-4800.000248976488;-4800.288113014738;0.06900701397080411;0.06925606976437848;-13750.0;13750.069256069764
0.25600000000000017;-10700964563.0;-10681761793.0;-2769.0;-4799.999992280423;-4800.219106000767;0.05271702427853597;0.06417401641556353;-11083.333333333334;11083.39750734975
0.2600000000000002;-10720164563.0;-10700962458.0;-2105.0;-4799.999839505466;-4800.166388976489;0.040096696066029835;0.03819373910118884;-8583.333333333334;8583.371527072435
0.2640000000000002;-10739364563.0;-10720162963.0;-1600.0;-4799.999783240185;-4800.126292280423;0.03045277495675691;0.01406632031830668;-6416.666666666667;6416.680732986985
0.2680000000000002;-10758564564.0;-10739363346.0;-1217.0;-4799.999782765825;-4800.095839505466;0.023036265281007218;0.00011858992365887389;-4500.0;4500.000118589924
0.2720000000000002;-10777764564.0;-10758563637.0;-927.0;-4799.999800039555;-4800.072803240185;0.017400474359419604;-0.004318432502259384;-2916.6666666666665;2916.6623482341643
0.2760000000000002;-10796964564.0;-10777763858.0;-706.0;-4799.999812951716;-4800.055402765825;0.013242726269709237;-0.003228040213798522;-1666.6666666666667;1666.663438626453
0.2800000000000002;-10816164564.0;-10796964026.0;-538.0;-4799.999814377104;-4800.042160039556;0.010067087839161104;-0.0003563468453648966;-750.0;749.9996436531546
0.2840000000000002;-10835364564.0;-10816164154.0;-410.0;-4799.9998059517375;-4800.032092951717;0.007678574613237288;0.002106341526086908;-83.33333333333333;83.33543967485942
0.2880000000000002;-10854564564.0;-10835364251.0;-313.0;-4799.99979215376;-4800.024414377103;0.005828425365507428;0.003449494442975265;416.6666666666667;-416.6632171722237
0.2920000000000002;-10873764564.0;-10854564325.0;-239.0;-4799.999776854796;-4800.018585951738;0.00445379797838541;0.0038247408156166784;666.6666666666666;-666.662841925851
0.2960000000000002;-10892964564.0;-10873764381.0;-183.0;-4799.999762162344;-4800.014132153759;0.0033752989629647345;0.003673113042168552;750.0;-749.9963268869578
0.3000000000000002;-10912164564.0;-10892964424.0;-140.0;-4799.999748663871;-4800.010756854796;0.0025946924524760107;0.0033746182452887297;666.6666666666666;-666.6632920484213
0.3040000000000002;-10931364564.0;-10912164456.0;-108.0;-4799.999736108923;-4800.008162162344;0.0019334984726810944;0.0031387371564051136;583.3333333333334;-583.330194596177
0.3080000000000002;-10950564564.0;-10931364480.0;-84.0;-4799.999724012176;-4800.006228663871;0.0014525549486279488;0.003024186753464164;416.6666666666667;-416.6636424799132
0.3120000000000002;-10969764563.0;-10950564499.0;-65.0;-4799.999711990449;-4800.004776108923;0.0011520967473188648;0.0030054316084715538;416.6666666666667;-416.6636612350582
0.3160000000000002;-10988964563.0;-10969764513.0;-50.0;-4799.999699840033;-4800.003624012175;0.0009120217264353414;0.0030376040740520693;250.0;-249.99696239592595
0.32000000000000023;-11008164563.0;-10988964523.0;-40.0;-4799.999687518802;-4800.002711990449;0.0006121504156908486;0.003080307806158089;250.0;-249.99691969219384
0.32400000000000023;-11027364562.0;-11008164531.0;-32.0;-4799.999675053301;-4800.002099840033;0.0004923212318317383;0.003116375182798947;83.33333333333333;-83.33021695815053
0.32800000000000024;-11046564562.0;-11027364537.0;-25.0;-4799.999662504124;-4800.001607518801;0.0004324655001255451;0.003137294243060751;83.33333333333333;-83.33019603909027
0.33200000000000024;-11065764562.0;-11046564541.0;-21.0;-4799.9996499070485;-4800.001175053301;0.00025254917727579596;0.0031492688776779687;83.33333333333333;-83.33018406445565
0.33600000000000024;-11084964561.0;-11065764544.0;-18.0;-4799.999637277657;-4800.000922504124;0.0001925970755110029;0.0031573479191138176;83.33333333333333;-83.33017598541421
0.34000000000000025;-11104164560.0;-11084964546.0;-15.0;-4799.999624625181;-4800.0007299070485;0.0001926293916767463;0.0031631188903702423;83.33333333333333;-83.33017021444296
0.34400000000000025;-11123364560.0;-11104164548.0;-12.0;-4799.999611936928;-4800.000537277657;0.000192652475561772;0.003172063316014828;0.0;0.003172063316014828
0.34800000000000025;-11142564559.0;-11123364549.0;-11.0;-4799.999599220973;-4800.000344625181;7.268825356732123e-05;0.003178988663421478;0.0;0.003178988663421478
0.35200000000000026;-11161764558.0;-11142564550.0;-9.0;-4799.999586464048;-4800.000271936928;0.00013271595435071504;0.003189231392752845;0.0;0.003189231392752845
0.35600000000000026;-11180964558.0;-11161764550.0;-8.0;-4799.999573662686;-4800.000139220973;7.275692587427329e-05;0.0032003404157876503;0.0;0.0032003404157876503
0.36000000000000026;-11200164557.0;-11180964550.0;-8.0;-4799.999560824968;-4800.000066464047;1.2801361663150601e-05;0.003209429451089818;0.0;0.003209429451089818
0.36400000000000027;-11219364556.0;-11200164550.0;-7.0;-4799.999547949741;-4800.000053662686;7.283771719812648e-05;0.003218806796212448;0.0;0.003218806796212448
0.36800000000000027;-11238564555.0;-11219364549.0;-7.0;-4799.999535029501;-4799.999980824969;1.2875227184849791e-05;0.0032300599741574842;0.0;0.0032300599741574842
0.3720000000000003;-11257764554.0;-11238564548.0;-7.0;-4799.999522075213;-4799.999967949741;1.2920239896629937e-05;0.0032385721624450525;0.0;0.0032385721624450525
0.3760000000000003;-11276964553.0;-11257764547.0;-7.0;-4799.9995090834145;-4799.9999550295015;1.295428864978021e-05;0.0032479495075676823;0.0;0.0032479495075676823
0.3800000000000003;-11296164552.0;-11276964546.0;-7.0;-4799.99949605757;-4799.999942075213;1.299179803027073e-05;0.0032564612411078997;0.0;0.0032564612411078997
0.3840000000000003;-11315364551.0;-11296164545.0;-7.0;-4799.99948298902;-4799.999929083415;1.3025844964431599e-05;0.003267137344664661;0.0;0.003267137344664661
0.3880000000000003;-11334564549.0;-11315364544.0;-7.0;-4799.999469887577;-4799.99991605757;1.3068549378658645e-05;0.0032753607683844166;0.0;0.0032753607683844166
0.3920000000000003;-11353764548.0;-11334564543.0;-6.0;-4799.999456742854;-4799.9999029890205;7.310144337679958e-05;0.0032861807994777337;0.0;0.0032861807994777337
0.3960000000000003;-11372964547.0;-11353764542.0;-6.0;-4799.99944357216;-4799.999829887577;1.3144723197910935e-05;0.003292673454780015;0.0;0.003292673454780015
0.4000000000000003;-11392164545.0;-11372964541.0;-6.0;-4799.999430360495;-4799.999816742854;1.317069381912006e-05;0.003302916184111382;0.0;0.003302916184111382
0.4040000000000003;-11411364544.0;-11392164540.0;-5.0;-4799.999417109589;-4799.99980357216;7.321166503970744e-05;0.003312726676085731;0.0;0.003312726676085731
0.4080000000000003;-11430564543.0;-11411364538.0;-6.0;-4799.999403826942;-4799.999730360495;-4.674909359891899e-05;0.003320661562611349;0.0;0.003320661562611349
0.4120000000000003;-11449764541.0;-11430564537.0;-6.0;-4799.999390511403;-4799.999777109589;1.3282646250445396e-05;0.003328884758957429;0.0;0.003328884758957429
0.4160000000000003;-11468964539.0;-11449764536.0;-5.0;-4799.9993771537365;-4799.999763826942;7.331553933909163e-05;0.0033394167076039594;0.0;0.0033394167076039594
0.4200000000000003;-11488164538.0;-11468964534.0;-5.0;-4799.999363769524;-4799.999690511403;1.3357666830415837e-05;0.003346053063069121;0.0;0.003346053063069121
0.4240000000000003;-11507362199.0;-11488164532.0;-6.0;-4799.4150672764135;-4799.999677153736;-4.661578805098543e-05;146.07412327768543;0.0;146.07412327768543
0.4280000000000003;-11526550544.0;-11507364530.0;2331.0;-4797.086049680608;-4799.999723769524;0.7245164931109684;582.2543989513633;0.0;582.2543989513633
0.43200000000000033;-11545720604.0;-11526561630.0;11086.0;-4792.5148333331745;-4799.275207276413;2.854317595804787;1142.8040868584048;83.33333333333333;1059.4707535250716
0.43600000000000033;-11564845634.0;-11545747313.0;26709.0;-4781.257172536233;-4796.4208896806085;5.508596347433922;2814.4151992353272;83.33333333333333;2731.0818659019938
0.44000000000000034;-11583861971.0;-11564910962.0;65328.0;-4754.084025322469;-4790.912293333175;13.574800796941418;6793.286803441106;83.33333333333333;6709.953470107773
0.44400000000000034;-11602688162.0;-11584020311.0;158340.0;-4706.54748370239;-4777.337492536233;32.75386721376435;11884.135405019606;83.33333333333333;11800.802071686272
0.44800000000000034;-11621238556.0;-11602998645.0;310483.0;-4637.598451367451;-4744.583625322469;56.665121620078935;17237.258083734785;166.66666666666666;17070.59141706812
0.45200000000000035;-11639409982.0;-11621750319.0;511763.0;-4542.856250764162;-4687.91850370239;81.02583233493897;23685.55015082234;500.0;23185.55015082234
0.45600000000000035;-11657076435.0;-11640177889.0;767907.0;-4416.61285314694;-4606.892671367451;110.11084060328903;31560.849404305372;916.6666666666666;30644.182737638705
0.46000000000000035;-11674094672.0;-11658165016.0;1088581.0;-4254.559121780556;-4496.781830764162;145.48383761722198;40513.43284159611;1583.3333333333333;38930.09950826278
0.46400000000000036;-11690310289.0;-11675570207.0;1475535.0;-4053.9041215562293;-4351.29799314694;185.2709713663844;50163.750056081655;2416.6666666666665;47747.083389414984
0.46800000000000036;-11705560102.0;-11692234315.0;1924026.0;-3812.4531293093805;-4166.0270217805555;227.56446022432647;60362.748061712184;3583.3333333333335;56779.41472837885
0.47200000000000036;-11719695157.0;-11707988165.0;2428063.0;-3533.763572083413;-3938.462561556229;271.69321224684836;69672.38930649194;5083.333333333333;64589.0559731586
0.47600000000000037;-11732605779.0;-11722655242.0;2960085.0;-3227.6553804391924;-3666.7693493093807;310.6108772259681;76527.0479110551;6916.666666666667;69610.38124438842
0.48000000000000037;-11744202217.0;-11736079875.0;3474096.0;-2899.109232176019;-3356.1584720834126;336.9488516442202;82136.5370657934;9000.0;73136.5370657934
0.4840000000000004;-11754417691.0;-11748156713.0;3954496.0;-2553.868463914225;-3019.2096204391923;357.37014826317363;86310.19206544851;11333.333333333334;74976.85873211519
0.4880000000000004;-11763240499.0;-11758804070.0;4386379.0;-2205.7019259836097;-2661.8394721760187;371.15374826179414;87041.63448265377;13916.666666666666;73124.9678159871
