Zeit[sec];Sollposition[°];Istposition[°];Positionsschleppfehler[°];Sollgeschwindigkeit[°/s];Istgeschwindigkeit[°/s];Geschwindigkeitsdifferenz[°/s];Sollbeschleunigung[°/s*s];Istbeschleunigung[°/s*s];Beschleunigungsdifferenz[°/s*s]
0.0;0.0;2.0;-2.0;-0.0;-0.000192;0.0;0.0;0.0;0.0
0.004;0.0;2.0;-2.0;-0.0;-0.000192;0.0;0.0;0.0;0.0
0.008;0.0;2.0;-2.0;-0.0;-0.000192;0.0;0.0;0.0;0.0
0.012;0.0;2.0;-2.0;-0.0;-0.000192;0.0;0.0;0.0;0.0
0.016;0.0;2.0;-2.0;-0.0;-0.000192;0.0;0.0;0.0;0.0
0.02;0.0;2.0;-2.0;-0.0;-0.000192;0.0;0.0;0.0;0.0
0.024;0.0;2.0;-2.0;-0.0;-0.000192;0.0;0.0;0.0;0.0
0.028;0.0;2.0;-2.0;-0.0;-0.000192;0.0;0.0;0.0;0.0
0.032;0.0;2.0;-2.0;-0.0;-0.000192;0.0;0.0;0.0;0.0
0.036000000000000004;0.0;2.0;-2.0;-0.0;-0.000192;0.0;0.0;0.0;0.0
0.04000000000000001;0.0;2.0;-2.0;-0.0;-0.000192;0.0;0.0;0.0;0.0
0.04400000000000001;0.0;2.0;-2.0;-0.0;-0.000192;0.0;0.0;0.0;0.0
0.048000000000000015;-284.0;2.0;-2.0;-0.07112280856729336;-0.000192;0.0;-17.78070214182334;0.0;-17.78070214182334
0.05200000000000002;-3119.0;2.0;-286.0;-0.708786644181954;-0.000192;-0.09838680856729337;-159.41595890366517;0.0;-159.41595890366517
0.05600000000000002;-78723.0;-392.0;-2727.0;-18.900936878336278;-0.09857880856729337;-0.8719998356146607;-4548.037558538581;0.0;-4548.037558538581
0.060000000000000026;-238680.0;-4274.0;-74449.0;-39.98927597322862;-0.970578644181954;-25.077462234154325;-5272.084773723086;0.0;-5272.084773723086
0.06400000000000003;-565729.0;-108466.0;-130214.0;-81.76227645963839;-26.04804087833628;-26.44177909489234;-10443.250121602441;0.0;-10443.250121602441
0.06800000000000003;-1104759.0;-318425.0;-247304.0;-134.75749323882835;-52.48981997322862;-53.01364048640977;-13248.80419479749;-166.66666666666666;-13082.137528130823
0.07200000000000004;-1837428.0;-740438.0;-364321.0;-183.16729835306873;-105.50346045963839;-64.22884877918996;-12102.451278560096;-416.6666666666667;-11685.78461189343
0.07600000000000004;-2797732.0;-1419367.0;-418061.0;-240.07583388698197;-169.73230923882835;-53.56884511424039;-14227.13388347831;-916.6666666666666;-13310.467216811643
0.08000000000000004;-4068749.0;-2312571.0;-485161.0;-317.75419821598547;-223.30115435306874;-63.35013553391326;-19419.591082250874;-1333.3333333333333;-18086.257748917542
0.08400000000000005;-5751816.0;-3459176.0;-609573.0;-420.76695394893926;-286.651289886982;-89.62191632900345;-25753.18893323845;-1833.3333333333333;-23919.855599905113
0.08800000000000005;-7929437.0;-4964268.0;-787548.0;-544.405069684987;-376.27320621598545;-120.09835573295379;-30909.52893401193;-2250.0;-28659.52893401193
0.09200000000000005;-10665631.0;-6949754.0;-979683.0;-684.0485978078084;-496.37156194893925;-142.08307573604776;-34910.882030705354;-3000.0;-31910.882030705354
0.09600000000000006;-14014384.0;-9503572.0;-1162059.0;-837.188230455515;-638.454637684987;-157.15162412282143;-38284.908161926665;-3916.6666666666665;-34368.24149526
0.10000000000000006;-18018186.0;-12685997.0;-1328387.0;-1000.9502439275691;-795.6062618078084;-169.10712064770667;-40940.50336801351;-5083.333333333333;-35857.17003468017
0.10400000000000006;-22707266.0;-16544850.0;-1473336.0;-1172.2700934123038;-964.7133824555151;-177.67711747205408;-42829.96237118368;-6250.0;-36579.96237118368
0.10800000000000007;-28103802.0;-21114411.0;-1592855.0;-1349.1339233919336;-1142.3904999275692;-182.79367348473465;-44215.95749490746;-7500.0;-36715.95749490746
0.11200000000000007;-34224122.0;-26415147.0;-1688655.0;-1530.0797603400595;-1325.1841734123038;-186.06062997962977;-45236.45923703146;-8916.666666666666;-36319.792570364785
0.11600000000000008;-41078689.0;-32460126.0;-1763996.0;-1713.6417590343192;-1511.2448033919336;-188.17857294812575;-45890.49967356493;-10333.333333333334;-35557.1663402316
0.12000000000000008;-48672685.0;-39257819.0;-1820870.0;-1898.4989319625652;-1699.4233763400593;-189.02190269425978;-46214.29323206149;-11833.333333333334;-34380.95989872816
0.12400000000000008;-57007545.0;-46811600.0;-1861085.0;-2083.7149859759306;-1888.4452790343191;-188.71781292824585;-46304.01350334137;-13250.0;-33054.01350334137
0.12800000000000009;-66082741.0;-55120252.0;-1887293.0;-2268.79881150332;-2077.163091962565;-187.73202201336562;-46270.956381847325;-14750.0;-31520.956381847325
0.1320000000000001;-75896551.0;-64179832.0;-1902909.0;-2453.452321951788;-2264.8951139759306;-186.58296152738922;-46163.37761211696;-16250.0;-29913.37761211696
0.1360000000000001;-86445704.0;-73985744.0;-1910807.0;-2637.288313162769;-2451.47807550332;-185.41171844846804;-45958.99780274533;-17750.0;-28208.99780274533
0.1400000000000001;-97725646.0;-84533303.0;-1912401.0;-2819.9853387213757;-2636.889793951788;-183.98901521098105;-45674.256389651644;-19166.666666666668;-26507.58972298498
0.1440000000000001;-109726620.0;-95816818.0;-1908828.0;-3000.243179305115;-2820.878809162769;-182.35401755860676;-45064.46014593485;-20583.333333333332;-24481.126812601513
0.1480000000000001;-122425006.0;-107829749.0;-1896871.0;-3174.59648018381;-3003.2328267213757;-179.10996858373937;-43588.32521967372;-22000.0;-21588.32521967372
0.1520000000000001;-135783148.0;-120559120.0;-1865886.0;-3339.535182009756;-3182.342795305115;-171.37874087869477;-41234.67545648657;-23416.666666666668;-17818.0087898199
0.1560000000000001;-149755742.0;-133974006.0;-1809142.0;-3493.1485488667336;-3353.72153618381;-159.49127782594633;-38403.341714244336;-24833.333333333332;-13570.008380911002
0.16000000000000011;-164290660.0;-148026857.0;-1728885.0;-3633.7292124516;-3513.212814009756;-145.9086948569775;-35145.16589621655;-26166.666666666668;-8978.499229549885
0.16400000000000012;-179327285.0;-162663343.0;-1627317.0;-3759.155987087816;-3659.1215088667336;-130.83013558486618;-31356.69365905403;-27416.666666666668;-3940.026992387363
0.16800000000000012;-194797900.0;-177823149.0;-1504136.0;-3867.653770663366;-3789.9516444516;-113.60139863621589;-27124.445893887467;-28583.333333333332;1458.8874394458635
0.17200000000000013;-210630469.0;-193437361.0;-1360539.0;-3958.1420426661252;-3903.5530430878157;-94.7124715755499;-22622.068000689866;-29583.333333333332;6961.265332643467
0.17600000000000013;-226750286.0;-209430423.0;-1200046.0;-4029.9538532294137;-3998.2655146633656;-75.08094400275968;-17952.952640822106;-30500.0;12547.047359177895
0.18000000000000013;-243085549.0;-225723808.0;-1026478.0;-4083.815650717371;-4073.3464586661253;-55.149282563288125;-13465.449371989394;-31166.666666666668;17701.217294677273
0.18400000000000014;-259577318.0;-242237790.0;-847759.0;-4122.942049334568;-4128.495741229413;-36.70477348795794;-9781.599654299156;-31750.0;21968.400345700844
0.18800000000000014;-276180510.0;-258898592.0;-678726.0;-4150.797780168532;-4165.200514717371;-22.899230617196736;-6963.932708491029;-32166.666666666668;25202.73395817564
0.19200000000000014;-292857889.0;-275650990.0;-529520.0;-4169.344506878869;-4188.099745334568;-13.531954833963937;-4636.681677584193;-32416.666666666668;27779.984989082477
0.19600000000000015;-309579329.0;-292457516.0;-400373.0;-4180.359935663744;-4201.631700168532;-6.148614710336915;-2753.85719621886;-32500.0;29746.142803781142
0.20000000000000015;-326323400.0;-309288637.0;-290692.0;-4186.017519882938;-4207.780314878869;-0.486052784875028;-1414.3960547985444;-32333.333333333332;30918.937278534788
0.20400000000000015;-343076483.0;-326121702.0;-201698.0;-4188.270456619946;-4208.266367663744;2.885839780805327;-563.2341842519963;-32000.0;31436.765815748004
0.20800000000000016;-359831027.0;-342943224.0;-133259.0;-4188.635868669265;-4205.380527882939;4.3172072629922695;-91.35301232959137;-31583.333333333332;31491.980321003743
0.21200000000000016;-376583832.0;-359747477.0;-83550.0;-4188.201014200649;-4201.063320619946;4.4066519506814075;108.71361715385319;-31083.333333333332;31192.046950487187
0.21600000000000016;-393334318.0;-376534103.0;-49729.0;-4187.621303121737;-4196.656668669265;3.681670468615266;144.9277697281559;-30500.0;30644.927769728158
0.22000000000000017;-410083083.0;-393306002.0;-28316.0;-4187.19107203095;-4192.97499820065;2.6353590789130976;107.55777269673672;-29750.0;29857.55777269674
0.22400000000000017;-426830959.0;-410067360.0;-15723.0;-4186.968945642534;-4190.339639121737;1.6391590907869613;55.53159710393629;-28833.333333333332;28888.864930437267
0.22800000000000017;-443578570.0;-426822161.0;-8798.0;-4186.90245924506;-4188.70048003095;0.8869263884153042;16.621599368590978;-27750.0;27766.62159936859
0.23200000000000018;-460326232.0;-443573415.0;-5155.0;-4186.915229851717;-4187.813553642534;0.41621439747450495;-3.192651664448931;-26500.0;26496.80734833555
0.23600000000000018;-477074031.0;-460323004.0;-3228.0;-4186.949640149061;-4187.39733924506;0.17222139334262465;-8.602574336009639;-25166.666666666668;25158.064092330656
0.24000000000000019;-493821938.0;-477071904.0;-2127.0;-4186.976611017467;-4187.225117851717;0.07128570265558665;-6.74271710136054;-23750.0;23743.257282898638
0.2440000000000002;-510569894.0;-493820519.0;-1419.0;-4186.988779299095;-4187.153832149062;0.040997131594849634;-3.0420704069911153;-22333.333333333332;22330.29126292634
0.2480000000000002;-527317854.0;-510568970.0;-924.0;-4186.989688988687;-4187.112835017467;0.03535171837211237;-0.22742239798390074;-20916.666666666668;20916.439244268684
0.25200000000000017;-544065797.0;-527317279.0;-575.0;-4186.9854960814955;-4187.077483299095;0.032594310408057936;1.0482267978204618;-19416.666666666668;19417.714893464487
0.25600000000000017;-560813721.0;-544065458.0;-339.0;-4186.98080903604;-4187.044888988687;0.026848907191379112;1.1717613638211333;-17916.666666666668;17917.83842803049
0.2600000000000002;-577561632.0;-560813530.0;-191.0;-4186.9777288150835;-4187.018040081495;0.018895045454883075;0.7700552391725068;-16416.666666666668;16417.43672190584
0.2640000000000002;-594309539.0;-577561526.0;-106.0;-4186.9764944164235;-4186.99914503604;0.011240220957006386;0.30859966500429437;-15083.333333333334;15083.641932998338
0.2680000000000002;-611057446.0;-594309477.0;-62.0;-4186.976491211617;-4186.987904815083;0.005458398659357044;0.0008012016223801766;-13583.333333333334;13583.334134534956
0.2720000000000002;-627805355.0;-611057406.0;-40.0;-4186.976997104849;-4186.982446416424;0.0021152048066142015;-0.12647330800064083;-12166.666666666666;12166.540193358665
0.2760000000000002;-644553266.0;-627805327.0;-28.0;-4186.97752651408;-4186.980331211617;0.0006461067687268951;-0.13235230767350004;-10666.666666666666;10666.534314358993
0.2800000000000002;-661301178.0;-644553245.0;-21.0;-4186.977876906894;-4186.979685104849;0.00014259076851885766;-0.08759820366321946;-9250.0;9249.912401796337
0.2840000000000002;-678049091.0;-661301163.0;-15.0;-4186.978037452155;-4186.97954251408;0.00022560718571185134;-0.04013631519228511;-7833.333333333333;7833.293197018141
0.2880000000000002;-694797004.0;-678049080.0;-11.0;-4186.978077954279;-4186.979316906894;0.00022345473917084746;-0.010125530934601557;-6500.0;6499.989874469065
0.2920000000000002;-711544917.0;-694796996.0;-8.0;-4186.978073152533;-4186.979093452155;0.0002474978764439584;0.001200436372528202;-5333.333333333333;5333.334533769706
0.2960000000000002;-728292830.0;-711544911.0;-6.0;-4186.978070629593;-4186.978845954279;0.0001968017450053594;0.0006307350304268766;-4166.666666666667;4166.667297401697
0.3000000000000002;-745040743.0;-728292825.0;-5.0;-4186.978088616785;-4186.978649152534;9.852294078882551e-05;-0.004496797828323906;-3166.6666666666665;3166.662169868838
0.3040000000000002;-761788657.0;-745040739.0;-4.0;-4186.978126566915;-4186.978550629593;7.801280844432767e-05;-0.009487532679486321;-2250.0;2249.9905124673205
0.3080000000000002;-778536570.0;-761788652.0;-5.0;-4186.9781766876695;-4186.9784726167845;-0.00013395013047556859;-0.012530188541859388;-1583.3333333333333;1583.3208031447914
0.3120000000000002;-795284484.0;-778536566.0;-4.0;-4186.978231355451;-4186.978606566915;4.5879245590185747e-05;-0.013666945278600906;-916.6666666666666;916.652999721388
0.3160000000000002;-812032398.0;-795284480.0;-4.0;-4186.9782859965035;-4186.978560687669;-5.4667781114403624e-05;-0.01366026322102698;-500.0;499.986339736779
0.32000000000000023;-828780312.0;-812032394.0;-4.0;-4186.978339040053;-4186.9786153554505;-5.464105288410792e-05;-0.013260887271826505;-166.66666666666666;166.65340577939483
0.32400000000000023;-845528226.0;-828780308.0;-4.0;-4186.978390724766;-4186.978669996503;-5.304354908730602e-05;-0.012921178267788491;-83.33333333333333;83.32041215506554
0.32800000000000024;-862276141.0;-845528222.0;-4.0;-4186.9784419155585;-4186.9787230400525;-5.1684713071153965e-05;-0.01279769821849186;83.33333333333333;-83.34613103155182
0.33200000000000024;-879024056.0;-862276137.0;-4.0;-4186.97849338808;-4186.978774724766;-5.119079287396744e-05;-0.012868130397691857;166.66666666666666;-166.67953479706435
0.33600000000000024;-895771971.0;-879024052.0;-4.0;-4186.978545578525;-4186.978825915558;-5.147252159076743e-05;-0.013047611219008104;166.66666666666666;-166.67971427788567
0.34000000000000025;-912519886.0;-895771967.0;-4.0;-4186.97859861664;-4186.97887738808;-5.2190444876032416e-05;-0.013259528714115731;166.66666666666666;-166.67992619538077
0.34400000000000025;-929267801.0;-912519882.0;-4.0;-4186.978652458172;-4186.978929578525;-5.3038114856462926e-05;-0.013460383115670993;83.33333333333333;-83.346793716449
0.34800000000000025;-946015717.0;-929267797.0;-4.0;-4186.978707006477;-4186.97898261664;-5.384153246268397e-05;-0.01363707610835263;83.33333333333333;-83.34697040944168
0.35200000000000026;-962763633.0;-946015713.0;-4.0;-4186.978762180742;-4186.979036458172;-5.454830443341052e-05;-0.01379356626785011;0.0;-0.01379356626785011
0.35600000000000026;-979511549.0;-962763629.0;-4.0;-4186.97881793706;-4186.979091006477;-5.517426507140044e-05;-0.013939079508418217;0.0;-0.013939079508418217
0.36000000000000026;-996259465.0;-979511545.0;-4.0;-4186.978874262114;-4186.979146180742;-5.575631803367287e-05;-0.014081263543630484;0.0;-0.014081263543630484
0.36400000000000027;-1013007381.0;-996259461.0;-4.0;-4186.978931159673;-4186.97920193706;-5.632505417452194e-05;-0.014224389815353788;0.0;-0.014224389815353788
0.36800000000000027;-1029755298.0;-1013007378.0;-3.0;-4186.978988637619;-4186.979258262114;3.9102440496208146e-05;-0.014369486507348483;83.33333333333333;-83.34770281984068
0.3720000000000003;-1046503215.0;-1029755294.0;-4.0;-4186.97904670098;-4186.979219159673;-0.00015347794578701723;-0.014515840121021029;83.33333333333333;-83.34784917345435
0.3760000000000003;-1063251132.0;-1046503211.0;-4.0;-4186.979105351323;-4186.979372637619;-5.8063360484084114e-05;-0.014662585726910038;83.33333333333333;-83.34799591906024
0.3800000000000003;-1079999050.0;-1063251128.0;-4.0;-4186.979164587206;-4186.97943070098;-5.865034290764015e-05;-0.014808970718149794;0.0;-0.014808970718149794
0.3840000000000003;-1096746968.0;-1079999045.0;-5.0;-4186.979224404795;-4186.979489351323;-0.00015523588263022248;-0.014954397329347557;0.0;-0.014954397329347557
0.3880000000000003;-1113494886.0;-1096746963.0;-5.0;-4186.979284800857;-4186.979644587205;-5.981758931739023e-05;-0.01509901562712912;0.0;-0.01509901562712912
0.3920000000000003;-1130242804.0;-1113494881.0;-5.0;-4186.9793457718415;-4186.979704404795;-6.039606250851648e-05;-0.015242746030708076;0.0;-0.015242746030708076
0.3960000000000003;-1146990722.0;-1130242800.0;-4.0;-4186.979407314954;-4186.979764800857;3.5029015634790994e-05;-0.015385778169729747;0.0;-0.015385778169729747
0.4000000000000003;-1163738641.0;-1146990718.0;-4.0;-4186.9794694274615;-4186.979729771841;-6.154311267891899e-05;-0.015528126823483035;0.0;-0.015528126823483035
0.4040000000000003;-1180486560.0;-1163738637.0;-4.0;-4186.979532106726;-4186.979791314954;-6.211250729393214e-05;-0.015669816093577538;0.0;-0.015669816093577538
0.4080000000000003;-1197234479.0;-1180486556.0;-4.0;-4186.979595350391;-4186.979853427461;-6.267926437431015e-05;-0.015810916238478967;0.0;-0.015810916238478967
0.4120000000000003;-1213982398.0;-1197234475.0;-4.0;-4186.979659155255;-4186.979916106726;-6.324366495391587e-05;-0.015951216028042836;0.0;-0.015951216028042836
0.4160000000000003;-1230730318.0;-1213982394.0;-4.0;-4186.979723519306;-4186.979979350391;-6.380486411217134e-05;-0.016091012867036625;0.0;-0.016091012867036625
0.4200000000000003;-1247476290.0;-1230730314.0;-4.0;-4186.492874973728;-4186.980043155255;-6.43640514681465e-05;121.71213639453526;0.0;121.71213639453526
0.4240000000000003;-1264212842.0;-1247478234.0;1944.0;-4184.137773111884;-4186.980107519306;0.673856545578019;588.7754654611399;0.0;588.7754654611399
0.4280000000000003;-1280927030.0;-1264223459.0;10617.0;-4178.546740561153;-4186.306250973728;3.1877098618442687;1397.7581376827857;0.0;1397.7581376827857
0.43200000000000033;-1297599557.0;-1280955933.0;28903.0;-4168.131556234337;-4183.118541111884;7.3464885507319195;2603.7960817038766;0.0;2603.7960817038766
0.43600000000000033;-1314198582.0;-1297659021.0;59464.0;-4149.756101183684;-4175.772052561152;13.349040326815157;4593.863762663204;0.0;4593.863762663204
0.44000000000000034;-1330678793.0;-1314308713.0;110131.0;-4120.0524265629365;-4162.423012234337;23.239487050652315;7425.918655186933;83.33333333333333;7342.5853218536
0.44400000000000034;-1346979968.0;-1330865447.0;186654.0;-4075.29363127302;-4139.183525183685;37.049882620748576;11189.698822479158;166.66666666666666;11023.032155812492
0.44800000000000034;-1363047061.0;-1347273981.0;294013.0;-4016.773171070249;-4102.133642562936;55.06525928991641;14630.115050692666;416.6666666666667;14213.448384026
0.45200000000000035;-1378818631.0;-1363462254.0;415193.0;-3942.8922959678052;-4047.0683832730197;70.15374020277068;18470.21877561099;666.6666666666666;17803.55210894432
0.45600000000000035;-1394228277.0;-1379369912.0;551281.0;-3852.4111468535266;-3976.914643070249;86.94532310244358;22620.287278569664;1166.6666666666667;21453.620611902996
0.46000000000000035;-1409210407.0;-1394929789.0;701512.0;-3745.5323315393416;-3889.9693199678054;104.90332511427869;26719.703828546244;1666.6666666666667;25053.037161879576
0.46400000000000036;-1423704015.0;-1410070052.0;859645.0;-3623.4018053537734;-3785.0659948535267;122.05958331418515;30532.631546392055;2416.6666666666665;28115.964879725387
0.46800000000000036;-1437660469.0;-1424722077.0;1018062.0;-3489.1134963377995;-3663.0064115393416;137.33855818556822;33572.077253993484;3166.6666666666665;30405.410587326816
0.47200000000000036;-1451023348.0;-1438824748.0;1164279.0;-3340.7196303617975;-3525.6678533537734;148.3251410159737;37098.46649400049;4166.666666666667;32931.79982733382
0.47600000000000037;-1463758317.0;-1452334118.0;1310770.0;-3183.7420208140006;-3377.3427123377996;162.45700197600218;39244.402386949216;5166.666666666667;34077.73572028255
0.48000000000000037;-1475840552.0;-1465193660.0;1435343.0;-3020.55858542047;-3214.8857103617975;168.9366175477967;40795.85884838264;6333.333333333333;34462.5255150493
0.4840000000000004;-1487250970.0;-1477377456.0;1536904.0;-2852.60432881468;-3045.949092814001;172.9332913935309;41988.56415144758;7583.333333333333;34405.23081811424
0.4880000000000004;-1497976598.0;-1488869519.0;1618549.0;-2681.4069769781936;-2873.01580142047;175.79217660579025;42799.33795912154;8916.666666666666;33882.67129245488
0.4920000000000004;-1508010338.0;-1499658413.0;1681815.0;-2508.434842125929;-2697.2236248146796;177.27088783648605;43243.0337130661;10333.333333333334;32909.70037973276
0.4960000000000004;-1517349540.0;-1509738223.0;1727885.0;-2334.800250384213;-2519.9527369781936;177.39485485226442;43408.64793542903;11666.666666666666;31741.981268762363
0.5000000000000003;-1525994150.0;-1519108454.0;1758914.0;-2161.152596705944;-2342.557882125929;176.61337574171603;43411.913419567325;13000.0;30411.913419567325
0.5040000000000003;-1533945138.0;-1527772232.0;1778082.0;-1987.746743302476;-2165.944506384213;175.48778167826936;43351.463350866936;14416.666666666666;28934.79668420027
