Zeit[sec];Sollposition[°];Istposition[°];Positionsschleppfehler[°];Sollgeschwindigkeit[°/s];Istgeschwindigkeit[°/s];Geschwindigkeitsdifferenz[°/s];Sollbeschleunigung[°/s*s];Istbeschleunigung[°/s*s];Beschleunigungsdifferenz[°/s*s]
0.0;0.0;5.0;-5.0;-0.0;-0.00021499999999999997;0.0;0.0;0.0;0.0
0.004;0.0;5.0;-5.0;-0.0;-0.00021499999999999997;0.0;0.0;0.0;0.0
0.008;0.0;5.0;-5.0;-0.0;-0.00021499999999999997;0.0;0.0;0.0;0.0
0.012;0.0;5.0;-5.0;-0.0;-0.00021499999999999997;0.0;0.0;0.0;0.0
0.016;0.0;5.0;-5.0;-0.0;-0.00021499999999999997;0.0;0.0;0.0;0.0
0.02;0.0;5.0;-5.0;-0.0;-0.00021499999999999997;0.0;0.0;0.0;0.0
0.024;0.0;5.0;-5.0;-0.0;-0.00021499999999999997;0.0;0.0;0.0;0.0
0.028;0.0;5.0;-5.0;-0.0;-0.00021499999999999997;0.0;0.0;0.0;0.0
0.032;0.0;5.0;-5.0;-0.0;-0.00021499999999999997;0.0;0.0;0.0;0.0
0.036000000000000004;0.0;5.0;-5.0;-0.0;-0.00021499999999999997;0.0;0.0;0.0;0.0
0.04000000000000001;0.0;5.0;-5.0;-0.0;-0.00021499999999999997;0.0;0.0;0.0;0.0
0.04400000000000001;0.0;5.0;-5.0;-0.0;-0.00021499999999999997;0.0;0.0;0.0;0.0
0.048000000000000015;0.0;5.0;-5.0;-0.0;-0.00021499999999999997;0.0;0.0;0.0;0.0
0.05200000000000002;-245.0;5.0;-5.0;-0.06149837896475272;-0.00021499999999999997;0.0;-15.374594741188181;0.0;-15.374594741188181
0.05600000000000002;-2697.0;5.0;-250.0;-0.6128727271479264;-0.00021499999999999997;-0.07203337896475272;-137.8435870457934;0.0;-137.8435870457934
0.060000000000000026;-14747.0;-283.0;-2414.0;-3.0123937314283076;-0.07224837896475272;-0.6444263481831736;-599.8802510700953;0.0;-599.8802510700953
0.06400000000000003;-54575.0;-3149.0;-11598.0;-9.956988427259622;-0.7166747271479263;-2.794433004280381;-1736.1486739578286;0.0;-1736.1486739578286
0.06800000000000003;-155611.0;-17193.0;-37382.0;-25.259224410450457;-3.5111077314283077;-8.053306695831315;-3825.5589957977086;0.0;-3825.5589957977086
0.07200000000000004;-366929.0;-63450.0;-92161.0;-52.829313436790265;-11.564414427259623;-17.657732983190833;-6892.522256584952;0.0;-6892.522256584952
0.07600000000000004;-748601.0;-180338.0;-186591.0;-95.41815156476689;-29.222147410450457;-31.630579026339806;-10647.209531994156;-83.33333333333333;-10563.876198660822
0.08000000000000004;-1365717.0;-423748.0;-324853.0;-154.27887969590478;-60.85272643679026;-48.53410412797662;-14715.182032784473;-250.0;-14465.182032784473
0.08400000000000005;-2285336.0;-861295.0;-504422.0;-229.90476058277227;-109.38683056476688;-66.5821951311379;-18906.470221716874;-500.0;-18406.470221716874
0.08800000000000005;-3575723.0;-1565171.0;-720165.0;-322.59686124607623;-175.96902569590478;-84.90282988686747;-23173.02516582599;-916.6666666666666;-22256.358499159323
0.09200000000000005;-5304203.0;-2608658.0;-967065.0;-432.11998106547156;-260.87185558277224;-103.308800663304;-27380.779954848833;-1416.6666666666667;-25964.113288182165
0.09600000000000006;-7532854.0;-4065380.0;-1238823.0;-557.1625174296995;-364.18065624607624;-121.20871381939531;-31260.634091056985;-2083.3333333333335;-29177.300757723653
0.10000000000000006;-10314304.0;-6006937.0;-1525917.0;-695.3626143849917;-485.38937006547155;-137.38757836422792;-34550.024238823054;-2833.3333333333335;-31716.690905489722
0.10400000000000006;-13688319.0;-8498044.0;-1816260.0;-843.5036363025239;-622.7769484296995;-150.6848459552922;-37035.25547938304;-3833.3333333333335;-33201.92214604971
0.10800000000000007;-17678729.0;-11591891.0;-2096428.0;-997.6025058785604;-773.4617943849917;-160.18824591753219;-38524.717394009116;-4916.666666666667;-33608.05072734245
0.11200000000000007;-22291882.0;-15326491.0;-2352238.0;-1153.2881653229902;-933.6500403025238;-165.09869957603655;-38921.41486110745;-6083.333333333333;-32838.08152777412
0.11600000000000008;-27516444.0;-19721485.0;-2570397.0;-1306.1404198130408;-1098.7487398785604;-165.06649644442973;-38213.063622512665;-7333.333333333333;-30879.73028917933
0.12000000000000008;-33323206.0;-24776745.0;-2739699.0;-1451.6904356875395;-1263.8152363229901;-160.13224049005066;-36387.50396862468;-8583.333333333334;-27804.17063529135
0.12400000000000008;-39666054.0;-30472534.0;-2850672.0;-1585.7120281586397;-1423.9474768130408;-150.32185487449874;-33505.39811777503;-9916.666666666666;-23588.731451108364
0.12800000000000009;-46485504.0;-36769611.0;-2896443.0;-1704.8622583463616;-1574.2693316875395;-135.98974547110015;-29787.557546930486;-11083.333333333334;-18704.224213597154
0.1320000000000001;-53713600.0;-43610647.0;-2874857.0;-1807.024080414642;-1710.2590771586397;-118.22203218772188;-25540.455517070084;-12250.0;-13290.455517070086
0.1360000000000001;-61278540.0;-50924571.0;-2789029.0;-1891.2347418883376;-1828.4811093463616;-98.47121806828045;-21052.665368423903;-13250.0;-7802.665368423903
0.1400000000000001;-69108649.0;-58632380.0;-2646160.0;-1957.5272985673412;-1926.952327414642;-78.06729447369548;-16573.139169750903;-14250.0;-2323.1391697509025
0.1440000000000001;-77135618.0;-66652458.0;-2456191.0;-2006.7419772884239;-2005.0196218883375;-58.123889679003696;-12303.669680270672;-15000.0;2696.330319729327
0.1480000000000001;-85296867.0;-74905032.0;-2230586.0;-2040.312265780755;-2063.143511567341;-39.513663721082594;-8392.5721230828;-15666.666666666666;7274.094543583866
0.1520000000000001;-93538400.0;-83315660.0;-1981207.0;-2060.3830929916976;-2102.657175288424;-22.8469914923312;-5017.706802735631;-16000.0;10982.29319726437
0.1560000000000001;-101818683.0;-91817676.0;-1720724.0;-2070.070606457399;-2125.504166780755;-8.870058210942716;-2421.8783664254033;-16416.666666666668;13994.788300241264
0.16000000000000011;-110110928.0;-100355172.0;-1463511.0;-2073.0611902090645;-2134.3742249916977;1.3726455342984991;-747.6459379163316;-16583.333333333332;15835.687395417
0.16400000000000012;-118401604.0;-108887178.0;-1223750.0;-2072.66884963927;-2133.001579457399;7.319139248334523;98.08514244866728;-16666.666666666668;16764.751809115336
0.16800000000000012;-126686379.0;-117389907.0;-1011697.0;-2071.1938149124;-2125.6824402090647;9.510619569794926;368.7586817175088;-16666.666666666668;17035.425348384175
0.17200000000000013;-134965797.0;-125854594.0;-831785.0;-2069.8543467688514;-2116.1718206392698;9.211250726869821;334.8670358871004;-16583.333333333332;16918.20036922043
0.17600000000000013;-143242022.0;-134282436.0;-683361.0;-2069.0560877615217;-2106.9605699124;7.721700143548333;199.56475183244038;-16583.333333333332;16782.898085165772
0.18000000000000013;-151517034.0;-142679391.0;-562631.0;-2068.7529694573414;-2099.2388697688516;5.989649007329717;75.77957604507901;-16416.666666666668;16492.446242711747
0.18400000000000014;-159792008.0;-151052387.0;-464647.0;-2068.7433050101986;-2093.249220761522;4.516430304180631;2.41611178569201;-16416.666666666668;16419.08277845236
0.18800000000000014;-168067372.0;-159407318.0;-384690.0;-2068.840875479319;-2088.7327904573413;3.4478154471426024;-24.392617280113882;-16333.333333333334;16308.940716053221
0.19200000000000014;-176343114.0;-167748457.0;-318915.0;-2068.935557493233;-2085.2849750101987;2.7307545308794943;-23.67050347845634;-16333.333333333334;16309.662829854879
0.19600000000000015;-184619067.0;-176078673.0;-264441.0;-2068.9881856672914;-2082.554220479319;2.2476999860864453;-13.157043514638644;-16250.0;16236.842956485361
0.20000000000000015;-192895074.0;-184399899.0;-219168.0;-2069.0015672928575;-2080.3065204932327;1.894110825941425;-3.345406391531469;-16250.0;16246.65459360847
0.20400000000000015;-201171047.0;-192713548.0;-181526.0;-2068.9931823626243;-2078.4124096672913;1.605224374433874;2.0962325583013808;-16166.666666666666;16168.762899224967
0.20800000000000016;-209446963.0;-201020776.0;-150271.0;-2068.979003531455;-2076.8071852928574;1.3523499302332311;3.5447077923436154;-16000.0;16003.544707792344
0.21200000000000016;-217722835.0;-209322595.0;-124368.0;-2068.9678924429895;-2075.454835362624;1.1280078311692705;2.777772116360211;-15666.666666666666;15669.444438783026
0.21600000000000016;-225998685.0;-217619902.0;-102933.0;-2068.962283882343;-2074.326827531455;0.9328160884651879;1.4021401616446383;-15250.0;15251.402140161645
0.22000000000000017;-234274530.0;-225913478.0;-85207.0;-2068.961040146255;-2073.3940114429897;0.7678265606468813;0.31093402196802344;-14750.0;14750.310934021967
0.22400000000000017;-242550378.0;-234203982.0;-70548.0;-2068.9620182401527;-2072.626184882343;0.6315807360879262;-0.24452347440728772;-14083.333333333334;14083.088809858928
0.22800000000000017;-250826232.0;-242491960.0;-58418.0;-2068.9635011043965;-2071.994604146255;0.5206119061022036;-0.3707160609565108;-13333.333333333334;13332.962617272377
0.23200000000000018;-259102091.0;-250777855.0;-48377.0;-2068.9646082082027;-2071.4739922401527;0.43028013575622026;-0.27677595153363654;-12333.333333333334;12333.0565573818
0.23600000000000018;-267377952.0;-259062029.0;-40062.0;-2068.965135075528;-2071.0437121043965;0.3564378961937109;-0.13171683133350598;-11333.333333333334;11333.201616502
0.24000000000000019;-275653813.0;-267344778.0;-33174.0;-2068.965226258064;-2070.687274208203;0.29565713267493265;-0.022795633981331775;-10083.333333333334;10083.310537699352
0.2440000000000002;-283929674.0;-275626344.0;-27469.0;-2068.9651090125853;-2070.391617075528;0.24522381746373867;0.029311369644346996;-8916.666666666666;8916.69597803631
0.2480000000000002;-292205534.0;-283906929.0;-22745.0;-2068.964954942699;-2070.146393258064;0.2032492454786734;0.038517471580234997;-7583.333333333333;7583.371850804913
0.25200000000000017;-300481394.0;-292186701.0;-18833.0;-2068.9648465887503;-2069.9431440125854;0.1683700698863504;0.02708848717247747;-6333.333333333333;6333.3604218205055
0.25600000000000017;-308757254.0;-300465800.0;-15594.0;-2068.96479886341;-2069.774773942699;0.13938535394891005;0.011931335052395298;-5083.333333333333;5083.345264668385
0.2600000000000002;-317033113.0;-308744341.0;-12913.0;-2068.964793970265;-2069.63538858875;0.11533072533984523;0.0012232862900418695;-3916.6666666666665;3916.6678899529566
0.2640000000000002;-325308973.0;-317022421.0;-10692.0;-2068.964808064864;-2069.5200578634103;0.09550789314516805;-0.0035236497524238075;-2833.3333333333335;2833.329809683581
0.2680000000000002;-333584833.0;-325300119.0;-8854.0;-2068.964824222477;-2069.424549970265;0.0790199054013101;-0.004039403279421094;-1916.6666666666667;1916.6626272633873
0.2720000000000002;-341860692.0;-333577501.0;-7332.0;-2068.964834892064;-2069.345530064864;0.06542984238694771;-0.0026673967568058288;-1166.6666666666667;1166.66399926991
0.2760000000000002;-350136552.0;-341854621.0;-6071.0;-2068.964839208565;-2069.280100222477;0.054212330412610754;-0.0010791252407216234;-583.3333333333334;583.3322542080926
0.2800000000000002;-358412412.0;-350131524.0;-5028.0;-2068.96483930859;-2069.2258878920643;0.044844683499377425;-2.5006215764733497e-05;-83.33333333333333;83.33330832711756
0.2840000000000002;-366688272.0;-358408248.0;-4164.0;-2068.9648376901546;-2069.181043208565;0.03715189997501511;0.00040460884065396385;250.0;-249.99959539115935
0.2880000000000002;-374964131.0;-366684823.0;-3449.0;-2068.964836019422;-2069.14389130859;0.030746618435387063;0.00041768316805246286;416.6666666666667;-416.66624898349863
0.2920000000000002;-383239991.0;-374961275.0;-2856.0;-2068.9648349804293;-2069.1131446901545;0.025500670732526487;0.00025974816253437893;500.0;-499.99974025183747
0.2960000000000002;-391515851.0;-383237625.0;-2366.0;-2068.964834598798;-2069.087644019422;0.021071038992886315;9.540781320538372e-05;500.0;-499.9999045921868
0.3000000000000002;-399791711.0;-391513891.0;-1960.0;-2068.9648346281024;-2069.066572980429;0.017458381631058728;-7.3260935096186586e-06;416.6666666666667;-416.6666739927602
0.3040000000000002;-408067570.0;-399790087.0;-1624.0;-2068.9648348095284;-2069.049114598798;0.014447970695528056;-4.535650077741593e-05;333.3333333333333;-333.3333786898341
0.3080000000000002;-416343430.0;-408066225.0;-1345.0;-2068.9648349806935;-2069.0346666281025;0.011996818574061763;-4.279127097106539e-05;250.0;-250.00004279127097
0.3120000000000002;-424619290.0;-416342315.0;-1115.0;-2068.9648350808275;-2069.0226698095285;0.009889828835184744;-2.5033500605786685e-05;250.0;-250.0000250335006
0.3160000000000002;-432895150.0;-424618366.0;-924.0;-2068.9648351136925;-2069.0127799806933;0.00821289986561169;-8.216261448978912e-06;250.0;-250.00000821626145
0.32000000000000023;-441171009.0;-432894384.0;-766.0;-2068.964835106743;-2069.0045670808277;0.006793967135308776;1.7373622540617362e-06;166.66666666666666;-166.6666649293044
0.32400000000000023;-449446869.0;-441170375.0;-634.0;-2068.964835086813;-2068.9977731136923;0.005676006949215662;4.982553036825266e-06;83.33333333333333;-83.33332835078029
0.32800000000000024;-457722729.0;-449446343.0;-526.0;-2068.964835069432;-2068.992097106743;0.0046440199303106056;4.345224624557886e-06;83.33333333333333;-83.3333289881087
0.33200000000000024;-465998589.0;-457722292.0;-437.0;-2068.96483505984;-2068.987453086813;0.0038270173808996333;2.397996468062047e-06;83.33333333333333;-83.33333093533686
0.33600000000000024;-474274448.0;-465998226.0;-363.0;-2068.9648350571347;-2068.983626069432;0.003182009591910173;6.763229976058938e-07;83.33333333333333;-83.33333265701033
0.34000000000000025;-482550308.0;-474274147.0;-301.0;-2068.9648350582384;-2068.98044405984;0.002666002705154824;-2.759179551503621e-07;83.33333333333333;-83.33333360925128
0.34400000000000025;-490826168.0;-482550058.0;-250.0;-2068.9648350603684;-2068.977778057135;0.0021929988965894154;-5.325091478880495e-07;83.33333333333333;-83.33333386584248
0.34800000000000025;-499102027.0;-490825960.0;-208.0;-2068.964835062125;-2068.9755850582383;0.0018059978697237966;-4.391722541186027e-07;83.33333333333333;-83.33333377250558
0.35200000000000026;-507377887.0;-499101855.0;-172.0;-2068.9648350630114;-2068.9737790603685;0.0015479982434953854;-2.2157564671942964e-07;0.0;-2.2157564671942964e-07
0.35600000000000026;-515653747.0;-507377743.0;-144.0;-2068.9648350632287;-2068.972231062125;0.0012039991138408368;-5.434230843093246e-08;0.0;-5.434230843093246e-08
0.36000000000000026;-523929607.0;-515653627.0;-120.0;-2068.9648350631046;-2068.971027063011;0.0010319997822989535;3.1036506698001176e-08;0.0;3.1036506698001176e-08
0.36400000000000027;-532205466.0;-523929506.0;-101.0;-2068.964835062856;-2068.969995063229;0.00081700012424335;6.218670023372397e-08;0.0;6.218670023372397e-08
0.36800000000000027;-540481326.0;-532205382.0;-84.0;-2068.9648350627003;-2068.9691780631047;0.0007310002488338796;3.888089850079268e-08;0.0;3.888089850079268e-08
0.3720000000000003;-548757186.0;-540481255.0;-71.0;-2068.9648350626535;-2068.968447062856;0.0005590001555901836;1.1709744285326451e-08;0.0;1.1709744285326451e-08
0.3760000000000003;-557033046.0;-548757126.0;-60.0;-2068.964835062607;-2068.9678880627002;0.00047300004689532216;1.1596057447604835e-08;0.0;1.1596057447604835e-08
0.3800000000000003;-565308905.0;-557032995.0;-51.0;-2068.964835062576;-2068.9674150626533;0.00038700004643033026;7.73070496506989e-09;0.0;7.73070496506989e-09
0.3840000000000003;-573584765.0;-565308863.0;-42.0;-2068.9648350626535;-2068.967028062607;0.000387000030514173;-1.9326762412674725e-08;0.0;-1.9326762412674725e-08
0.3880000000000003;-581860625.0;-573584729.0;-36.0;-2068.9648350626226;-2068.9666410625764;0.000257999922723684;7.73070496506989e-09;0.0;7.73070496506989e-09
0.3920000000000003;-590136485.0;-581860594.0;-31.0;-2068.964835062685;-2068.9663830626537;0.00021500003094843123;-1.5575096767861396e-08;0.0;-1.5575096767861396e-08
0.3960000000000003;-598412344.0;-590136458.0;-27.0;-2068.9648350626226;-2068.9661680626227;0.00017199993772010203;1.5575096767861396e-08;0.0;1.5575096767861396e-08
0.4000000000000003;-606688204.0;-598412321.0;-23.0;-2068.964835062685;-2068.965996062685;0.00017200006232087617;-1.5575096767861396e-08;0.0;-1.5575096767861396e-08
0.4040000000000003;-614964064.0;-606688184.0;-20.0;-2068.9648350626535;-2068.9658240626227;0.00012899993771497975;7.844391802791506e-09;0.0;7.844391802791506e-09
0.4080000000000003;-623239923.0;-614964046.0;-18.0;-2068.9648350626226;-2068.965695062685;8.600003138781176e-05;7.73070496506989e-09;0.0;7.73070496506989e-09
0.4120000000000003;-631515783.0;-623239908.0;-15.0;-2068.964835062685;-2068.9656090626536;0.00012900003093818668;-1.5575096767861396e-08;83.33333333333333;-83.33333334890843
0.4160000000000003;-639791643.0;-631515769.0;-14.0;-2068.9648350626535;-2068.9654800626226;4.29999377047352e-05;7.844391802791506e-09;83.33333333333333;-83.33333332548894
0.4200000000000003;-648067503.0;-639791630.0;-13.0;-2068.9648350626226;-2068.965437062685;4.3000031382689485e-05;7.73070496506989e-09;83.33333333333333;-83.33333332560262
0.4240000000000003;-656343257.0;-648067491.0;-12.0;-2068.938602122421;-2068.9653940626536;4.3000030927942134e-05;6.55823505042008;0.0;6.55823505042008
0.4280000000000003;-664618229.0;-656343352.0;95.0;-2068.7427555723057;-2068.9653510626226;0.030833940201773657;48.96163752880511;0.0;48.96163752880511
0.43200000000000033;-672890360.0;-664619090.0;861.0;-2068.0326529442514;-2068.934517122421;0.2287845501150514;177.52565701357526;0.0;177.52565701357526
0.43600000000000033;-681154883.0;-672893912.0;3552.0;-2066.130695850023;-2068.705732572306;0.8258156280544426;475.4892735570593;0.0;475.4892735570593
0.44000000000000034;-689401045.0;-681165431.0;10548.0;-2061.5403179131754;-2067.8799169442514;2.2027850942281475;1147.594484211936;0.0;1147.594484211936
0.44400000000000034;-697606918.0;-689428139.0;27094.0;-2051.4682134367013;-2065.677131850023;5.301855936847915;2518.026119118531;0.0;2518.026119118531
0.44800000000000034;-705735765.0;-697669640.0;62722.0;-2032.2116071183084;-2060.3752759131753;11.604108476473812;4814.151579598218;0.0;4814.151579598218
0.45200000000000035;-713736426.0;-705864724.0;128959.0;-2000.1652804160835;-2048.7711674367015;22.10479731839314;8011.5816755562155;83.33333333333333;7928.248342222882
0.45600000000000035;-721546553.0;-713971389.0;234963.0;-1952.5316011927748;-2026.6663701183084;36.60449870222487;11908.41980582718;166.66666666666666;11741.753139160513
0.46000000000000035;-729096726.0;-721931636.0;385083.0;-1887.5430279211173;-1990.0618714160835;54.088839223308696;16247.143317914379;333.3333333333333;15913.809984581045
0.46400000000000036;-736314519.0;-729675528.0;578802.0;-1804.448230728343;-1935.9730321927748;73.31849027165754;20773.699298193547;666.6666666666666;20107.032631526883
0.46800000000000036;-743127838.0;-737126146.0;811627.0;-1703.3297024141443;-1862.6545419211172;93.10627219277421;25279.632078549697;1083.3333333333333;24196.29874521636
0.47200000000000036;-749467599.0;-744204339.0;1076501.0;-1584.9401721794206;-1769.548269728343;112.5081103141988;29597.382558680918;1666.6666666666667;27930.715892014254
0.47600000000000037;-755271516.0;-750832499.0;1364900.0;-1450.9791448734884;-1657.0401594141442;130.7906872347237;33490.25682648306;2333.3333333333335;31156.923493149727
0.48000000000000037;-760489374.0;-756937496.0;1665980.0;-1304.4644818778997;-1526.2494721794205;146.9074673059322;36628.66574889716;3250.0;33378.66574889716
0.4840000000000004;-765087219.0;-762454864.0;1965490.0;-1149.46110926831;-1379.3420048734883;159.3935929955885;38750.84315239741;4333.333333333333;34417.50981906408
0.4880000000000004;-769049733.0;-767334657.0;2247438.0;-990.6284425858613;-1219.9484118778998;167.1271366095898;39708.1666706122;5416.666666666667;34291.50000394553
0.4920000000000004;-772381917.0;-771545942.0;2496209.0;-833.0460399642502;-1052.82127526831;169.52981968244876;39395.60065540278;6666.666666666667;32728.933988736106
0.4960000000000004;-775108917.0;-775079107.0;2697190.0;-681.7501072436478;-883.2914555858613;166.22458562161103;37823.98318015061;7916.666666666667;29907.31651348394
0.5000000000000003;-777273193.0;-777947374.0;2838457.0;-541.0687538206262;-717.0668699642503;157.37041372060241;35170.338355755404;9250.0;25920.338355755404
0.5040000000000003;-778930610.0;-780186159.0;2912966.0;-414.3543104922673;-559.6964562436478;143.88524042302163;31678.61083208972;10500.0;21178.61083208972
