Zeit[sec];Sollposition[°];Istposition[°];Positionsschleppfehler[°];Sollgeschwindigkeit[°/s];Istgeschwindigkeit[°/s];Geschwindigkeitsdifferenz[°/s];Sollbeschleunigung[°/s*s];Istbeschleunigung[°/s*s];Beschleunigungsdifferenz[°/s*s]
0.0;-9979199999.0;-9979199995.0;-4.0;0.0;-0.00023999999999999998;0.0;0.0;0.0;0.0
0.004;-9979199999.0;-9979199995.0;-4.0;0.0;-0.00023999999999999998;0.0;0.0;0.0;0.0
0.008;-9979199999.0;-9979199995.0;-4.0;0.0;-0.00023999999999999998;0.0;0.0;0.0;0.0
0.012;-9979199999.0;-9979199995.0;-4.0;0.0;-0.00023999999999999998;0.0;0.0;0.0;0.0
0.016;-9979199999.0;-9979199995.0;-4.0;0.0;-0.00023999999999999998;0.0;0.0;0.0;0.0
0.02;-9979199999.0;-9979199995.0;-4.0;0.0;-0.00023999999999999998;0.0;0.0;0.0;0.0
0.024;-9979199999.0;-9979199995.0;-4.0;0.0;-0.00023999999999999998;0.0;0.0;0.0;0.0
0.028;-9979199999.0;-9979199995.0;-4.0;0.0;-0.00023999999999999998;0.0;0.0;0.0;0.0
0.032;-9979199999.0;-9979199995.0;-4.0;0.0;-0.00023999999999999998;0.0;0.0;0.0;0.0
0.036000000000000004;-9979199999.0;-9979199995.0;-4.0;0.0;-0.00023999999999999998;0.0;0.0;0.0;0.0
0.04000000000000001;-9979199999.0;-9979199995.0;-4.0;0.0;-0.00023999999999999998;0.0;0.0;0.0;0.0
0.04400000000000001;-9979199999.0;-9979199995.0;-4.0;0.0;-0.00023999999999999998;0.0;0.0;0.0;0.0
0.048000000000000015;-9979199999.0;-9979199995.0;-4.0;0.0;-0.00023999999999999998;0.0;0.0;0.0;0.0
0.05200000000000002;-9979199999.0;-9979199995.0;-4.0;0.0;-0.00023999999999999998;0.0;0.0;0.0;0.0
0.05600000000000002;-9979199999.0;-9979199995.0;-4.0;0.0;-0.00023999999999999998;0.0;0.0;0.0;0.0
0.060000000000000026;-9979258164.0;-9979199995.0;-4.0;-14.541024265848641;-0.00023999999999999998;0.0;-3635.25606646216;0.0;-3635.25606646216
0.06400000000000003;-9979341733.0;-9979199995.0;-58169.0;-20.89223737236365;-0.00023999999999999998;-18.03092426584864;-1587.803276628752;0.0;-1587.803276628752
0.06800000000000003;-9979471447.0;-9979272119.0;-69614.0;-32.428534243787944;-18.03116426584864;-7.037913106515006;-2884.0742178560736;0.0;-2884.0742178560736
0.07200000000000004;-9979633638.0;-9979372395.0;-99052.0;-40.54786665755705;-25.069077372363648;-13.302576871424296;-2029.833103442277;-83.33333333333333;-1946.4997701089437
0.07600000000000004;-9979808350.0;-9979525881.0;-107757.0;-43.677873477965264;-38.371654243787944;-8.64163241376911;-782.501705102053;-166.66666666666666;-615.8350384353864
0.08000000000000004;-9979987447.0;-9979713934.0;-94416.0;-44.77425690391124;-47.01328665755705;-2.3295468204082113;-274.0958564864933;-333.3333333333333;59.23747684684005
0.08400000000000005;-9980171990.0;-9979911305.0;-76142.0;-46.13587302393086;-49.342833477965264;5.657405402814675e-05;-340.4040300049065;-333.3333333333333;-7.070696671573174
0.08800000000000005;-9980356002.0;-9980108676.0;-63314.0;-46.0030500008081;-49.342776903911236;-0.5919361200196249;33.20575578069018;-416.6666666666667;449.8724224473569
0.09200000000000005;-9980520623.0;-9980308414.0;-47588.0;-41.155073690757725;-49.93471302393086;1.0763830231227587;1211.9940775125945;-333.3333333333333;1545.3274108459277
0.09600000000000006;-9980649854.0;-9980503847.0;-16776.0;-32.30784306081526;-48.8583300008081;6.696696310050378;2211.8076574856163;-416.6666666666667;2628.4743241522833
0.10000000000000006;-9980731958.0;-9980672493.0;22639.0;-20.525862316966993;-42.161633690757725;11.212130629942465;2945.4951859620664;-333.3333333333333;3278.8285192954
0.10400000000000006;-9980748033.0;-9980796291.0;64333.0;-4.0189616797936765;-30.94950306081526;14.283620743848267;4126.725159293329;-333.3333333333333;4460.058492626663
0.10800000000000007;-9980687331.0;-9980862954.0;114921.0;15.175718487462674;-16.665882316966993;19.542180637173317;4798.670041814088;-166.66666666666666;4965.336708480754
0.11200000000000007;-9980560615.0;-9980851449.0;164118.0;31.67890384757184;2.876298320206323;22.14650016725635;4125.796340027291;-83.33333333333333;4209.129673360624
0.11600000000000008;-9980390371.0;-9980751358.0;190743.0;42.560979403653036;25.022798487462673;18.10068536010916;2720.5188890202994;0.0;2720.5188890202994
0.12000000000000008;-9980198574.0;-9980578865.0;188494.0;47.9492915003808;43.12348384757183;10.747135556081204;1347.0780241819416;166.66666666666666;1180.4113575152749
0.12400000000000008;-9980002583.0;-9980363383.0;164809.0;48.99768010652045;53.87061940365304;3.9672120967277635;262.0971515349115;250.0;12.097151534911532
0.12800000000000009;-9979815455.0;-9980132032.0;129449.0;46.78207054998227;57.8378315003808;-1.0732113938603547;-553.902389134544;416.6666666666667;-970.5690558012108
0.1320000000000001;-9979643413.0;-9979904974.0;89519.0;43.010535009472726;56.76462010652045;-4.611409556538177;-942.8838851273866;416.6666666666667;-1359.5505517940533
0.1360000000000001;-9979491866.0;-9979696362.0;52949.0;37.88654507528401;52.15321054998227;-5.965735540509542;-1280.9974835471785;500.0;-1780.9974835471785
0.1400000000000001;-9979373421.0;-9979511613.0;19747.0;29.611425372748744;46.18747500947273;-7.116109934188714;-2068.7799256338167;416.6666666666667;-2485.4465923004836
0.1440000000000001;-9979297152.0;-9979355328.0;-18093.0;19.067201247727834;39.071365075284014;-10.54551970253527;-2636.0560312552275;333.3333333333333;-2969.389364588561
0.1480000000000001;-9979259086.0;-9979241225.0;-55927.0;9.516365334376447;28.525845372748744;-12.81426412502091;-2387.7089783378465;250.0;-2637.7089783378465
0.1520000000000001;-9979199999.0;-9979178379.0;-80707.0;14.771740755286016;15.711581247727834;-11.037635913351387;1313.8438552273924;166.66666666666666;1147.1771885607257
0.1560000000000001;-9979199999.0;-9979159684.0;-40315.0;0.0;4.673945334376447;7.67889542090957;-3692.935188821504;83.33333333333333;-3776.2685221548372
0.16000000000000011;-9979256544.0;-9979110273.0;-89726.0;-14.136093499054928;12.352840755286017;-17.736400755286017;-3534.023374763732;0.0;-3534.023374763732
0.16400000000000012;-9979262540.0;-9979131807.0;-124737.0;-1.499120673413809;-5.383559999999999;-16.236753499054927;3159.2432064102795;0.0;3159.2432064102795
0.16800000000000012;-9979266032.0;-9979218288.0;-44252.0;-0.8728982460405369;-21.620313499054927;17.466072825641117;156.555606843318;0.0;156.555606843318
0.17200000000000013;-9979267277.0;-9979234904.0;-31128.0;-0.3113136589735561;-4.154240673413809;1.4136624273732723;140.3961467667452;0.0;140.3961467667452
0.17600000000000013;-9979267222.0;-9979245866.0;-21411.0;0.01390520324453768;-2.7405782460405366;1.1446045870669805;81.30471555452345;0.0;81.30471555452345
0.18000000000000013;-9979266724.0;-9979252249.0;-14973.0;0.12446277927566293;-1.595973658973556;0.7114988622180938;27.639394007781313;0.0;27.639394007781313
0.18400000000000014;-9979266282.0;-9979255786.0;-10938.0;0.11044177025091192;-0.8844747967554623;0.35265757603112524;-3.505252256187752;0.0;-3.505252256187752
0.18800000000000014;-9979266063.0;-9979257913.0;-8369.0;0.05470247009119213;-0.531817220724337;0.14011899097524905;-13.934825039929947;0.0;-13.934825039929947
0.19200000000000014;-9979266041.0;-9979259479.0;-6584.0;0.005537054558149722;-0.39169822974908797;0.05136069984028013;-12.291353883260603;0.0;-12.291353883260603
0.19600000000000015;-9979266125.0;-9979260840.0;-5201.0;-0.020961197948760734;-0.34033752990880783;0.03381458446695762;-6.624563126727614;0.0;-6.624563126727614
0.20000000000000015;-9979266235.0;-9979262066.0;-4059.0;-0.02756700287972951;-0.3065229454418502;0.04202174749308951;-1.6514512327421944;0.0;-1.6514512327421944
0.20400000000000015;-9979266329.0;-9979263124.0;-3111.0;-0.023352128199893137;-0.2645011979487607;0.05027419506903119;1.0537186699590937;166.66666666666666;-165.61294799670756
0.20800000000000016;-9979266394.0;-9979263980.0;-2349.0;-0.01627344560278287;-0.2142270028797295;0.0499348746798364;1.7696706492775667;250.0;-248.23032935072243
0.21200000000000016;-9979266436.0;-9979264637.0;-1757.0;-0.010684758270975491;-0.1642921281998931;0.04259868259711025;1.3971718329518446;416.6666666666667;-415.2694948337148
0.21600000000000016;-9979266467.0;-9979265123.0;-1313.0;-0.00777102429359383;-0.12169344560278286;0.03222868733180738;0.7284334943454152;333.3333333333333;-332.6048998389879
0.22000000000000017;-9979266495.0;-9979265480.0;-987.0;-0.006972202138151177;-0.08946475827097548;0.022473733977381657;0.19970553886066322;416.6666666666667;-416.46696112780603
0.22400000000000017;-9979266524.0;-9979265747.0;-748.0;-0.007241611272234891;-0.06699102429359383;0.015138822155442655;-0.06735228352092842;333.3333333333333;-333.4006856168542
0.22800000000000017;-9979266555.0;-9979265954.0;-570.0;-0.0077435316341753;-0.05185220213815117;0.010410590865916287;-0.12548009048510214;333.3333333333333;-333.4588134238184
0.23200000000000018;-9979266587.0;-9979266119.0;-436.0;-0.008052067933807498;-0.041441611272234884;0.007538079638059587;-0.07713407490804956;250.0;-250.07713407490806
0.23600000000000018;-9979266620.0;-9979266254.0;-333.0;-0.008071610741708436;-0.033903531634175296;0.005871463700367799;-0.0048857019752344966;250.0;-250.00488570197524
0.24000000000000019;-9979266651.0;-9979266366.0;-254.0;-0.007876309331718227;-0.028032067933807497;0.004720457192099063;0.048825352497552155;166.66666666666666;-166.6178413141691
0.2440000000000002;-9979266682.0;-9979266459.0;-192.0;-0.007579529302056735;-0.023311610741708434;0.003915301409990208;0.074195007415373;0.0;0.074195007415373
0.2480000000000002;-9979266711.0;-9979266536.0;-146.0;-0.0072661974691702385;-0.019396309331718226;0.003056780029661494;0.0783329582216242;-166.66666666666666;166.7449996248883
0.25200000000000017;-9979266739.0;-9979266601.0;-110.0;-0.0069767492385455505;-0.016339529302056732;0.0024733318328864946;0.07236205765617201;-333.3333333333333;333.4056953909895
0.25600000000000017;-9979266765.0;-9979266656.0;-83.0;-0.0067180293538564645;-0.013866197469170238;0.001909448230624687;0.0646799711722715;-416.6666666666667;416.73134663783895
0.2600000000000002;-9979266791.0;-9979266703.0;-62.0;-0.006480751446736172;-0.01195674923854555;0.0015187198846890859;0.05931947678007306;-500.0;500.05931947678005
0.2640000000000002;-9979266816.0;-9979266744.0;-47.0;-0.006252791070292644;-0.010438029353856465;0.0011372779071202928;0.0569900941108821;-416.6666666666667;416.72365676077754
0.2680000000000002;-9979266840.0;-9979266781.0;-35.0;-0.006025615810936054;-0.009300751446736172;0.0009479603764435286;0.0567938148391474;-416.6666666666667;416.7234604815058
0.2720000000000002;-9979266864.0;-9979266814.0;-26.0;-0.005795465705138321;-0.008352791070292643;0.0007671752593565893;0.05753752644943339;-333.3333333333333;333.39087085978275
0.2760000000000002;-9979266886.0;-9979266844.0;-20.0;-0.005561960168762115;-0.007585615810936054;0.0005901501057977336;0.058376384094051444;-250.0;250.05837638409406
0.2800000000000002;-9979266907.0;-9979266871.0;-15.0;-0.0053262265272240724;-0.00699546570513832;0.0005335055363762057;0.05893341038451061;-83.33333333333333;83.39226674371784
0.2840000000000002;-9979266928.0;-9979266896.0;-11.0;-0.005089556573687826;-0.006461960168762115;0.0004757336415380422;0.05916748838406165;0.0;0.05916748838406165
0.2880000000000002;-9979266947.0;-9979266919.0;-9.0;-0.004852805828977619;-0.005986226527224072;0.0003566699535362469;0.05918768617755167;-83.33333333333333;83.39252101951088
0.2920000000000002;-9979266965.0;-9979266941.0;-6.0;-0.004616323714920827;-0.0056295565736878255;0.0004167507447102063;0.05912052851419808;-83.33333333333333;83.39245386184753
0.2960000000000002;-9979266983.0;-9979266961.0;-4.0;-0.0043801200418742865;-0.005212805828977619;0.00035648211405679264;0.059050918261635076;0.0;0.059050918261635076
0.3000000000000002;-9979267000.0;-9979266980.0;-3.0;-0.004144067275199106;-0.004856323714920827;0.00029620367304654047;0.05901319166879511;83.33333333333333;-83.27432014166453
0.3040000000000002;-9979267015.0;-9979266998.0;-2.0;-0.003908032686538068;-0.004560120041874286;0.0002960527666751797;0.05900864716525947;83.33333333333333;-83.27432468616807
0.3080000000000002;-9979267030.0;-9979267015.0;0.0;-0.003671936350336931;-0.004264067275199106;0.0003560345886610382;0.05902408405028428;0.0;0.05902408405028428
0.3120000000000002;-9979267044.0;-9979267030.0;0.0;-0.003435749989684811;-0.003908032686538068;0.00023609633620113712;0.05904659016302998;0.0;0.05904659016302998
0.3160000000000002;-9979267056.0;-9979267044.0;0.0;-0.003199478798300034;-0.003671936350336931;0.00023618636065211992;0.05906779784619427;0.0;0.05906779784619427
0.32000000000000023;-9979267068.0;-9979267057.0;1.0;-0.0029631421083563684;-0.003435749989684811;0.00029627119138477724;0.059084172485916436;0.0;0.059084172485916436
0.32400000000000023;-9979267079.0;-9979267069.0;1.0;-0.002726757232248234;-0.003139478798300034;0.00023633668994366575;0.05909621902703362;0.0;0.05909621902703362
0.32800000000000024;-9979267089.0;-9979267080.0;1.0;-0.002490335134492097;-0.002903142108356368;0.00023638487610813446;0.059105524439034246;0.0;0.059105524439034246
0.33200000000000024;-9979267098.0;-9979267090.0;1.0;-0.0022538821629659116;-0.0026667572322482337;0.00023642209775613697;0.059113242881546325;0.0;0.059113242881546325
0.33600000000000024;-9979267106.0;-9979267099.0;1.0;-0.0020174012030687474;-0.0024303351344920968;0.0002364529715261853;0.059120239974291056;0.0;0.059120239974291056
0.34000000000000025;-9979267113.0;-9979267107.0;1.0;-0.0017808939860400465;-0.0021938821629659115;0.0002364809598971642;0.05912680425717524;0.0;0.05912680425717524
0.34400000000000025;-9979267120.0;-9979267114.0;1.0;-0.0015443616660394364;-0.0019574012030687473;0.00023650721702870073;0.0591330800001525;0.0;0.0591330800001525
0.34800000000000025;-9979267125.0;-9979267120.0;0.0;-0.0013078077055458017;-0.0017208939860400465;0.00017653232000061007;0.05913849012340869;0.0;0.05913849012340869
0.35200000000000026;-9979267129.0;-9979267126.0;1.0;-0.0010712344128783983;-0.0015443616660394364;0.0002965539604936347;0.059143323166850864;0.0;0.059143323166850864
0.35600000000000026;-9979267132.0;-9979267130.0;1.0;-0.0008346464046757379;-0.0012478077055458018;0.00023657329266740345;0.059147002050665094;0.0;0.059147002050665094
0.36000000000000026;-9979267135.0;-9979267134.0;2.0;-0.0005980465663368906;-0.0010112344128783983;0.0002965880082026604;0.059149959584711836;0.0;0.059149959584711836
0.36400000000000027;-9979267136.0;-9979267136.0;1.0;-0.00036143749472101935;-0.0007146464046757379;0.0001765998383388474;0.0591522679039678;0.0;0.0591522679039678
0.36800000000000027;-9979267137.0;-9979267138.0;2.0;-0.0001248235179267292;-0.0005380465663368905;0.00029660907161587114;0.059153494198572534;0.0;0.059153494198572534
0.3720000000000003;-9979267136.0;-9979267138.0;1.0;0.00011179161302718895;-0.00024143749472101936;0.00017661397679429014;0.059153782738479536;0.0;0.059153782738479536
0.3760000000000003;-9979267135.0;-9979267138.0;2.0;0.0003484061669012931;-6.482351792672921e-05;0.00029661513095391814;0.05915363846852603;0.0;0.05915363846852603
0.3800000000000003;-9979267133.0;-9979267138.0;3.0;0.0005850149499772573;0.00023179161302718892;0.00029661455387410414;0.05915219576899104;0.0;0.05915219576899104
0.3840000000000003;-9979267129.0;-9979267136.0;3.0;0.0008216159424757325;0.0005284061669012931;0.00023660878307596423;0.059150248124618804;0.0;0.059150248124618804
0.3880000000000003;-9979267125.0;-9979267133.0;4.0;0.0010582051048380209;0.0007650149499772573;0.0002966009924984753;0.059147290590572096;0.0;0.059147290590572096
0.3920000000000003;-9979267120.0;-9979267129.0;4.0;0.0012947786860453313;0.0010616159424757326;0.00023658916236228827;0.05914339530182762;0.0;0.05914339530182762
0.3960000000000003;-9979267114.0;-9979267124.0;4.0;0.0015313352433981293;0.0012982051048380208;0.00023657358120731048;0.059139139338199496;0.0;0.059139139338199496
0.4000000000000003;-9979267107.0;-9979267118.0;4.0;0.001767869294638181;0.0015347786860453313;0.000236556557352798;0.05913351281001294;0.0;0.05913351281001294
0.4040000000000003;-9979267099.0;-9979267111.0;4.0;0.002004379397065952;0.0017713352433981293;0.00023653405124005153;0.0591275256069427;0.0;0.0591275256069427
0.4080000000000003;-9979267090.0;-9979267103.0;4.0;0.0022408600684232093;0.002007869294638181;0.0002365101024277708;0.05912016783931435;0.0;0.05912016783931435
0.4120000000000003;-9979267080.0;-9979267095.0;5.0;0.002477310154550325;0.0022443793970659516;0.00029648067135725755;0.05911252153177897;0.0;0.05911252153177897
0.4160000000000003;-9979267069.0;-9979267085.0;5.0;0.0027137247502688794;0.002540860068423209;0.00023645008612711588;0.05910364892963856;0.0;0.05910364892963856
0.4200000000000003;-9979267057.0;-9979267074.0;5.0;0.002950101547259618;0.002777310154550325;0.00023641459571855424;0.05909419924768464;0.0;0.05909419924768464
0.4240000000000003;-9979267044.0;-9979267062.0;5.0;0.0031864359288840275;0.0030137247502688793;0.00023637679699073854;0.059083595406102384;0.0;0.059083595406102384
0.4280000000000003;-9979267031.0;-9979267049.0;5.0;0.0034227264524425735;0.003250101547259618;0.00023633438162440953;0.059072630889636504;0.0;0.059072630889636504
0.43200000000000033;-9979267016.0;-9979267036.0;5.0;0.0036589682127568367;0.0034864359288840274;0.00023629052355854602;0.05906044007856581;0.0;0.05906044007856581
0.43600000000000033;-9979267000.0;-9979267022.0;6.0;0.003895158035887841;0.0037227264524425734;0.0002962417603142634;0.059047455782751064;0.0;0.059047455782751064
0.44000000000000034;-9979266984.0;-9979267006.0;6.0;0.0041312930364365156;0.004018968212756837;0.00023618982313100383;0.05903375013716864;0.0;0.05903375013716864
0.44400000000000034;-9979266966.0;-9979266989.0;5.0;0.00436737032900379;0.004255158035887841;0.00017613500054867483;0.05901932314181864;0.0;0.05901932314181864
0.44800000000000034;-9979266948.0;-9979266972.0;6.0;0.004603385585491061;0.0044312930364365155;0.0002960772925672747;0.05900381412181767;0.0;0.05900381412181767
0.45200000000000035;-9979266929.0;-9979266954.0;6.0;0.004839336786118978;0.00472737032900379;0.00023601525648727067;0.05898780015697923;0.0;0.05898780015697923
0.45600000000000035;-9979266908.0;-9979266935.0;6.0;0.005075218737169215;0.004963385585491061;0.00023595120062791693;0.05897048776255928;0.0;0.05897048776255928
0.46000000000000035;-9979266887.0;-9979266915.0;7.0;0.00531102884178261;0.005199336786118978;0.00029588195105023727;0.058952526153348894;0.0;0.058952526153348894
0.46400000000000036;-9979266865.0;-9979266894.0;7.0;0.005546765080179814;0.005495218737169215;0.00023581010461339556;0.05893405959930083;0.0;0.05893405959930083
0.46800000000000036;-9979266842.0;-9979266872.0;7.0;0.005782422835722315;0.005731028841782611;0.0002357362383972033;0.058914438885625295;0.0;0.058914438885625295
0.47200000000000036;-9979266818.0;-9979266849.0;7.0;0.006017999223011042;0.005966765080179814;0.00023565775554250119;0.05889409682218187;0.0;0.05889409682218187
0.47600000000000037;-9979266793.0;-9979266825.0;7.0;0.006253489913947391;0.006202422835722315;0.0002355763872887275;0.058872672734087146;0.0;0.058872672734087146
0.48000000000000037;-9979266767.0;-9979266800.0;7.0;0.006488893754371733;0.006437999223011043;0.0002354906909363486;0.05885096010608561;0.0;0.05885096010608561
0.4840000000000004;-9979266740.0;-9979266774.0;7.0;0.006724205550565745;0.006673489913947391;0.00023540384042434245;0.05882794904850299;0.0;0.05882794904850299
0.4880000000000004;-9979266712.0;-9979266747.0;7.0;0.006959422417130353;0.006908893754371734;0.00023531179619401196;0.058804216641151826;0.0;0.058804216641151826
0.4920000000000004;-9979266683.0;-9979266719.0;7.0;0.007194540891586675;0.007144205550565746;0.0002352168665646073;0.05877961861408065;0.0;0.05877961861408065
0.4960000000000004;-9979266654.0;-9979266690.0;7.0;0.007429557799995735;0.007379422417130353;0.00023511847445632263;0.058754227102265;0.0;0.058754227102265
0.5000000000000003;-9979266623.0;-9979266660.0;6.0;0.007664471122578181;0.0076145408915866755;0.00017501690840905984;0.05872833064561145;0.0;0.05872833064561145
