Zeit[sec];Sollposition[°];Istposition[°];Positionsschleppfehler[°];Sollgeschwindigkeit[°/s];Istgeschwindigkeit[°/s];Geschwindigkeitsdifferenz[°/s];Sollbeschleunigung[°/s*s];Istbeschleunigung[°/s*s];Beschleunigungsdifferenz[°/s*s]
0.0;0.0;2.0;-2.0;-0.0;-0.000192;0.0;0.0;0.0;0.0
0.004;0.0;2.0;-2.0;-0.0;-0.000192;0.0;0.0;0.0;0.0
0.008;0.0;2.0;-2.0;-0.0;-0.000192;0.0;0.0;0.0;0.0
0.012;0.0;2.0;-2.0;-0.0;-0.000192;0.0;0.0;0.0;0.0
0.016;0.0;2.0;-2.0;-0.0;-0.000192;0.0;0.0;0.0;0.0
0.02;0.0;2.0;-2.0;-0.0;-0.000192;0.0;0.0;0.0;0.0
0.024;0.0;2.0;-2.0;-0.0;-0.000192;0.0;0.0;0.0;0.0
0.028;0.0;2.0;-2.0;-0.0;-0.000192;0.0;0.0;0.0;0.0
0.032;0.0;2.0;-2.0;-0.0;-0.000192;0.0;0.0;0.0;0.0
0.036000000000000004;0.0;2.0;-2.0;-0.0;-0.000192;0.0;0.0;0.0;0.0
0.04000000000000001;0.0;2.0;-2.0;-0.0;-0.000192;0.0;0.0;0.0;0.0
0.04400000000000001;0.0;2.0;-2.0;-0.0;-0.000192;0.0;0.0;0.0;0.0
0.048000000000000015;-267.0;2.0;-2.0;-0.06695309844319654;-0.000192;0.0;-16.738274610799134;0.0;-16.738274610799134
0.05200000000000002;-2936.0;2.0;-269.0;-0.6672326770987512;-0.000192;-0.09258509844319654;-150.06989466388868;0.0;-150.06989466388868
0.05600000000000002;-73771.0;-369.0;-2567.0;-17.70859763693936;-0.09277709844319654;-0.8208875786555547;-4260.341239960152;0.0;-4260.341239960152
0.060000000000000026;-223859.0;-4023.0;-69748.0;-37.522089898513066;-0.9136646770987512;-23.490740959840608;-4953.373065393426;0.0;-4953.373065393426
0.06400000000000003;-531555.0;-101640.0;-122219.0;-76.924039731879;-24.40440563693936;-24.850708261573708;-9850.487458341486;0.0;-9850.487458341486
0.06800000000000003;-1042587.0;-298660.0;-232895.0;-127.75793194221254;-49.255113898513066;-50.02684583336593;-12708.473052583382;-166.66666666666666;-12541.806385916716
0.07200000000000004;-1740787.0;-695787.0;-346800.0;-174.55011157266404;-99.281959731879;-61.76877221033354;-11698.044907612875;-416.6666666666667;-11281.378240946207
0.07600000000000004;-2652600.0;-1339989.0;-400798.0;-227.95314712728057;-161.05073194221254;-51.9759876304515;-13350.758888654134;-833.3333333333334;-12517.4255553208
0.08000000000000004;-3853001.0;-2192095.0;-460505.0;-300.1001937666429;-213.02671957266404;-59.13490755461652;-18036.761659840588;-1250.0;-16786.761659840588
0.08400000000000005;-5437866.0;-3280741.0;-572260.0;-396.2162529955434;-272.16162712728055;-82.87552663936236;-24029.014807225125;-1666.6666666666667;-22362.348140558457
0.08800000000000005;-7486910.0;-4700889.0;-736977.0;-512.2610976699058;-355.0371537666429;-111.92889122890051;-29011.21116859059;-2166.6666666666665;-26844.544501923927
0.09200000000000005;-10061564.0;-6568753.0;-918157.0;-643.6632597539576;-466.9660449955434;-133.4381246743623;-32850.54052101296;-2833.3333333333335;-30017.207187679625
0.09600000000000006;-13213025.0;-8970369.0;-1091195.0;-787.8653244927929;-600.4041696699057;-148.0138100840519;-36050.51618470881;-3750.0;-32300.516184708813
0.10000000000000006;-16981403.0;-11964040.0;-1248985.0;-942.0943748278463;-748.4179797539576;-159.34990473883522;-38557.26258376336;-4750.0;-33807.26258376336
0.10400000000000006;-21395186.0;-15595111.0;-1386292.0;-1103.4458610239749;-907.7678844927929;-167.41052233505354;-40337.87154903214;-5833.333333333333;-34504.53821569881
0.10800000000000007;-26475219.0;-19895824.0;-1499362.0;-1270.0081317379554;-1075.1784068278464;-172.2062061961285;-41640.56767849513;-7083.333333333333;-34557.2343451618
0.11200000000000007;-32236793.0;-24885362.0;-1589857.0;-1440.3934013382063;-1247.384613023975;-175.24979071398047;-42596.31740006273;-8416.666666666666;-34179.65073339606
0.11600000000000008;-38689674.0;-30575899.0;-1660894.0;-1613.2202253970074;-1422.6344037379554;-177.20482160025085;-43206.70601470027;-9750.0;-33456.70601470027
0.12000000000000008;-45838677.0;-36975255.0;-1714419.0;-1787.250718084638;-1599.8392253382062;-177.96522405880114;-43507.62317190765;-11083.333333333334;-32424.289838574317
0.12400000000000008;-53685122.0;-44086472.0;-1752205.0;-1961.611086255354;-1777.8044493970074;-177.65794868763078;-43590.092042678974;-12500.0;-31090.092042678974
0.12800000000000009;-62228503.0;-51908321.0;-1776801.0;-2135.844989099541;-1955.4623980846382;-176.7215841707157;-43558.47571104681;-13916.666666666666;-29641.809044380145
0.1320000000000001;-71467775.0;-60437056.0;-1791447.0;-2309.817979348596;-2132.183982255354;-175.63991884418738;-43493.24756226372;-15333.333333333334;-28159.914228930385
0.1360000000000001;-81402061.0;-69668351.0;-1799424.0;-2483.571430257591;-2307.823901099541;-174.73878224905502;-43438.36272724877;-16666.666666666668;-26771.696060582104
0.1400000000000001;-92030867.0;-79598601.0;-1803460.0;-2657.201379469912;-2482.5626833485962;-174.14090690899502;-43407.48730308019;-18000.0;-25407.48730308019
0.1440000000000001;-103351229.0;-90225415.0;-1805452.0;-2830.090269237114;-2656.7035902575913;-173.82118121232043;-43222.222441800564;-19333.333333333332;-23888.889108467236
0.1480000000000001;-115352426.0;-101547514.0;-1803715.0;-3000.2990556992227;-2830.5247714699117;-172.72213776720264;-42552.19661552712;-20750.0;-21802.196615527122
0.1520000000000001;-128015939.0;-113560501.0;-1791925.0;-3165.878324034101;-3003.2469092371143;-169.07694646210848;-41394.81708371954;-22166.666666666668;-19228.15041705288
0.1560000000000001;-141316554.0;-126249796.0;-1766143.0;-3325.153392764095;-3172.323855699223;-163.104196334878;-39818.7671824985;-23500.0;-16318.767182498505
0.16000000000000011;-155217897.0;-139591508.0;-1725046.0;-3475.3355623161647;-3335.428052034101;-155.3297567299942;-37545.54238801745;-24750.0;-12795.542388017453
0.16400000000000012;-169671433.0;-153554539.0;-1663358.0;-3613.383936173847;-3490.757808764095;-144.2601215520699;-34512.093464420555;-26000.0;-8512.093464420559
0.16800000000000012;-184620961.0;-168094610.0;-1576823.0;-3737.381794284294;-3635.017930316165;-129.741013857682;-30999.464527611737;-27250.0;-3749.4645276117353
0.17200000000000013;-200004941.0;-183153645.0;-1467316.0;-3845.994837167567;-3764.758944173847;-113.4851861104471;-27153.260720818253;-28333.333333333332;1180.0726125150795
0.17600000000000013;-215756399.0;-198666621.0;-1338320.0;-3937.8642981533008;-3878.244130284294;-96.22942688327294;-22967.365246433474;-29416.666666666668;6449.301420233194
0.18000000000000013;-231806138.0;-214564515.0;-1191884.0;-4012.434516538295;-3974.473557167567;-77.811604985734;-18642.5545962486;-30250.0;11607.445403751399
0.18400000000000014;-248089262.0;-230773655.0;-1032483.0;-4070.780918574405;-4052.285162153301;-59.26772238499416;-14586.600509027448;-31000.0;16413.39949097255
0.18800000000000014;-264546774.0;-247219866.0;-869396.0;-4114.377842612837;-4111.552884538295;-42.690050036109824;-10899.231009608116;-31583.333333333332;20684.102323725216
0.19200000000000014;-281125742.0;-263836837.0;-709937.0;-4144.741649830494;-4154.242934574405;-28.288860038432176;-7590.95180441409;-32000.0;24409.04819558591
0.19600000000000015;-297784486.0;-280566964.0;-558778.0;-4164.685817599967;-4182.531794612837;-15.852543217656603;-4986.041942368274;-32250.0;27263.958057631724
0.20000000000000015;-314493847.0;-297360501.0;-423985.0;-4177.34021187404;-4198.384337830494;-7.004039769472911;-3163.598568518182;-32166.666666666668;29003.068098148484
0.20400000000000015;-331232662.0;-314182054.0;-311793.0;-4184.703376525966;-4205.388377599967;-1.883962274073383;-1840.7911629815317;-32000.0;30159.20883701847
0.20800000000000016;-347985296.0;-331011143.0;-221519.0;-4188.158421442517;-4207.27233987404;1.3031393480741826;-863.7612291377081;-31583.333333333332;30719.572104195624
0.21200000000000016;-364741625.0;-347835019.0;-150277.0;-4189.081960262045;-4205.969200525966;3.384187083449433;-230.88470488210078;-31166.666666666668;30935.781961784567
0.21600000000000016;-381496541.0;-364645359.0;-96266.0;-4188.728799476442;-4202.585013442516;4.261517180470946;88.29019640074875;-30666.666666666668;30754.95686306742
0.22000000000000017;-398248548.0;-381438652.0;-57889.0;-4188.001571985211;-4198.323496262045;4.037352785603616;181.8068728077833;-30000.0;30181.806872807785
0.22400000000000017;-414998083.0;-398215796.0;-32752.0;-4187.383496571432;-4194.286143476442;3.140379491231215;154.51885344464245;-29083.333333333332;29237.852186777975
0.22800000000000017;-431746189.0;-414980379.0;-17704.0;-4187.026306731927;-4191.145763985211;2.062683413778359;89.29745987620663;-28000.0;28089.29745987621
0.23200000000000018;-448493773.0;-431736711.0;-9478.0;-4186.895813183009;-4189.083080571432;1.1468858395046482;32.62338722970526;-26916.666666666668;26949.290053896373
0.23600000000000018;-465241359.0;-448488455.0;-5318.0;-4186.896367495671;-4187.936194731928;0.5298535489191636;-0.13857816566087422;-25666.666666666668;25666.528088501007
0.24000000000000019;-481989132.0;-465238080.0;-3279.0;-4186.9431679838335;-4187.406341183008;0.19518968733700603;-11.700122040565475;-24333.333333333332;24321.633211292767
0.2440000000000002;-498737082.0;-481986924.0;-2208.0;-4186.987090670545;-4187.211151495671;0.05601551183826814;-10.98067167777117;-22916.666666666668;22905.685994988897
0.2480000000000002;-515485127.0;-498735544.0;-1538.0;-4187.011209986182;-4187.155135983833;0.020397313288412988;-6.029828909277057;-21583.333333333332;21577.303504424053
0.25200000000000017;-532233197.0;-515484082.0;-1045.0;-4187.01731414216;-4187.134738670545;0.023208684363453358;-1.5260389945979114;-20166.666666666668;20165.14062767207
0.25600000000000017;-548981252.0;-532232528.0;-669.0;-4187.013545526745;-4187.111529986181;0.029991844021424185;0.9421538538845198;-18833.333333333332;18834.275487187217
0.2600000000000002;-565729282.0;-548980854.0;-398.0;-4187.007187757436;-4187.08153814216;0.029784615415337612;1.5894423270310654;-17416.666666666668;17418.2561089937
0.2640000000000002;-582477292.0;-565729061.0;-221.0;-4187.002234254974;-4187.0517535267445;0.023349769307969837;1.2383756156850723;-16083.333333333334;16084.571708949019
0.2680000000000002;-599225291.0;-582477174.0;-118.0;-4186.999760062017;-4187.0284037574365;0.01484150246324134;0.6185482391174446;-14666.666666666666;14667.285214905784
0.2720000000000002;-615973289.0;-599225228.0;-63.0;-4186.99923691296;-4187.013562254973;0.007754192955871986;0.13078726419735176;-13333.333333333334;13333.464120597531
0.2760000000000002;-632721289.0;-615973251.0;-38.0;-4186.999695816374;-4187.005808062017;0.0029231490570964525;-0.11472585333649477;-11916.666666666666;11916.55194081333
0.2800000000000002;-649469291.0;-632721262.0;-27.0;-4187.000367698183;-4187.00288491296;0.0005970965867163613;-0.16797045236671693;-10583.333333333334;10583.165362880967
0.2840000000000002;-666217295.0;-649469271.0;-20.0;-4187.000862653084;-4187.002287816374;1.1819065548479557e-07;-0.1237387252785993;-9250.0;9249.876261274721
0.2880000000000002;-682965300.0;-666217280.0;-15.0;-4187.001093998771;-4187.002287698183;-1.4954901416786015e-05;-0.05783642154710833;-8000.0;7999.942163578453
0.2920000000000002;-699713306.0;-682965289.0;-11.0;-4187.001129796671;-4187.002302653084;0.00015265431375155458;-0.008949475159170106;-6750.0;6749.991050524841
0.2960000000000002;-716461311.0;-699713297.0;-9.0;-4187.001073288163;-4187.002149998771;0.00015620209978806088;0.014127127087704139;-5500.0;5500.014127127088
0.3000000000000002;-733209316.0;-716461304.0;-7.0;-4187.001001498889;-4187.001993796671;0.00024850850786606316;0.017947318383448874;-4333.333333333333;4333.3512806517165
0.3040000000000002;-749957320.0;-733209310.0;-6.0;-4187.000950990153;-4187.001745288163;0.0001677892732914188;0.012627184105440392;-3333.3333333333335;3333.345960517439
0.3080000000000002;-766705325.0;-749957316.0;-4.0;-4187.0009279632695;-4187.00157749889;0.00024250873684650287;0.005756720838689944;-2416.6666666666665;2416.672423387505
0.3120000000000002;-783453329.0;-766705321.0;-4.0;-4187.000924126409;-4187.001334990153;2.3026883354759775e-05;0.0009592151855031261;-1666.6666666666667;1666.6676258818522
0.3160000000000002;-800201334.0;-783453326.0;-3.0;-4187.00092866461;-4187.0013119632695;9.98368604996358e-05;-0.0011345503025950165;-1083.3333333333333;1083.3321987830307
0.32000000000000023;-816949338.0;-800201330.0;-4.0;-4187.0009339883245;-4187.001212126409;-0.00010053820096800337;-0.0013309286259755027;-666.6666666666666;666.6653357380407
0.32400000000000023;-833697343.0;-816949335.0;-3.0;-4187.000936759356;-4187.00131266461;9.067628525372129e-05;-0.000692757794240606;-333.3333333333333;333.3326405755391
0.32800000000000024;-850445347.0;-833697339.0;-4.0;-4187.000936637336;-4187.001221988325;-9.877103093458572e-05;3.05049070448149e-05;-83.33333333333333;83.33336383824037
0.33200000000000024;-867193352.0;-850445344.0;-3.0;-4187.000934609762;-4187.001320759356;9.612201938580256e-05;0.0005068934569862904;83.33333333333333;-83.33282643987634
0.33600000000000024;-883941356.0;-867193348.0;-4.0;-4187.0009318070715;-4187.001224637336;-9.397242592967814e-05;0.0007006726718827849;166.66666666666666;-166.66596599399477
0.34000000000000025;-900689361.0;-883941353.0;-3.0;-4187.000928974952;-4187.001318609762;9.880269044515444e-05;0.0007080298018991016;166.66666666666666;-166.66595863686476
0.34400000000000025;-917437365.0;-900689357.0;-4.0;-4187.0009264151395;-4187.001219807072;-9.31678805500269e-05;0.0006399532139766961;166.66666666666666;-166.66602671345268
0.34800000000000025;-934185370.0;-917437362.0;-3.0;-4187.000924133569;-4187.001312974952;9.855981261353008e-05;0.0005703925580746727;83.33333333333333;-83.33276294077525
0.35200000000000026;-950933374.0;-934185366.0;-4.0;-4187.000922017489;-4187.00121441514;-9.371842952532461e-05;0.0005290200988383731;83.33333333333333;-83.33280431323449
0.35600000000000026;-967681379.0;-950933371.0;-3.0;-4187.000919950027;-4187.001308133569;9.811608015297679e-05;0.0005168653842702042;0.0;0.0005168653842702042
0.36000000000000026;-984429383.0;-967681375.0;-4.0;-4187.000917858225;-4187.001210017489;-9.393253822054248e-05;0.0005229505859460915;0.0;0.0005229505859460915
0.36400000000000027;-1001177388.0;-984429380.0;-3.0;-4187.00091571576;-4187.001303950027;9.809180210140767e-05;0.0005356162091629812;0.0;0.0005356162091629812
0.36800000000000027;-1017925392.0;-1001177384.0;-4.0;-4187.000913524992;-4187.001205858225;-9.385753492097137e-05;0.0005476920250657713;0.0;0.0005476920250657713
0.3720000000000003;-1034673397.0;-1017925389.0;-3.0;-4187.000911298292;-4187.00129971576;9.819076785788639e-05;0.0005566751042351825;0.0;0.0005566751042351825
0.3760000000000003;-1051421401.0;-1034673393.0;-4.0;-4187.000909047879;-4187.001201524992;-9.377329934068257e-05;0.0005626031907013385;0.0;0.0005626031907013385
0.3800000000000003;-1068169406.0;-1051421398.0;-3.0;-4187.000906780851;-4187.001295298292;9.825041252042865e-05;0.0005667568530043354;0.0;0.0005667568530043354
0.3840000000000003;-1084917410.0;-1068169402.0;-4.0;-4187.00090449947;-4187.001197047879;-9.373297234560596e-05;0.0005703452643501805;0.0;0.0005703452643501805
0.3880000000000003;-1101665414.0;-1084917407.0;-3.0;-4187.000902203296;-4187.001290780851;9.828138081502402e-05;0.0005740434971812647;0.0;0.0005740434971812647
0.3920000000000003;-1118413419.0;-1101665411.0;-3.0;-4187.000899890978;-4187.001192499471;2.2961739887250587e-06;0.0005780796072940575;0.0;0.0005780796072940575
0.3960000000000003;-1135161423.0;-1118413415.0;-4.0;-4187.0008975613855;-4187.001190203297;-9.368768132844707e-05;0.0005823981155117508;0.0;0.0005823981155117508
0.4000000000000003;-1151909428.0;-1135161420.0;-3.0;-4187.000895214047;-4187.001283890978;9.83295922196703e-05;0.0005868346306669991;0.0;0.0005868346306669991
0.4040000000000003;-1168657432.0;-1151909424.0;-4.0;-4187.0008928483985;-4187.001185561386;-9.36526612349553e-05;0.0005914121175010223;0.0;0.0005914121175010223
0.4080000000000003;-1185405436.0;-1168657429.0;-3.0;-4187.00089046535;-4187.001279214047;9.836564822762739e-05;0.0005957622306596022;0.0;0.0005957622306596022
0.4120000000000003;-1202153441.0;-1185405433.0;-3.0;-4187.000888064084;-4187.001180848399;2.383048922638409e-06;0.0006003162980050547;0.0;0.0006003162980050547
0.4160000000000003;-1218901445.0;-1202153437.0;-4.0;-4187.000885645294;-4187.00117846535;-9.359873456560308e-05;0.0006046975613571703;0.0;0.0006046975613571703
0.4200000000000003;-1235648542.0;-1218901442.0;-3.0;-4186.773948680477;-4187.001272064084;9.841879000305198e-05;56.73424120436721;0.0;56.73424120436721
0.4240000000000003;-1252391248.0;-1235649446.0;904.0;-4185.676336103367;-4187.001173645294;0.3140089648177309;274.40314427735757;0.0;274.40314427735757
0.4280000000000003;-1269123534.0;-1252396194.0;4946.0;-4183.071313061026;-4186.687164680477;1.4856445771092694;651.2557605853999;83.33333333333333;567.9224272520665
0.43200000000000033;-1285833723.0;-1269137000.0;13466.0;-4177.547055461388;-4185.201520103367;3.4229430423420126;1381.0643999095191;83.33333333333333;1297.7310665761859
0.43600000000000033;-1302496661.0;-1285864114.0;30391.0;-4165.734268593007;-4181.778577061025;7.149057599637672;2953.1967170951248;83.33333333333333;2869.8633837617913
0.44000000000000034;-1319073495.0;-1302562632.0;65971.0;-4144.208528090226;-4174.629519461388;15.228466868380565;5381.435125695361;0.0;5381.435125695361
0.44400000000000034;-1335517259.0;-1319200236.0;126741.0;-4110.940597047502;-4159.401052593007;27.35966050278148;8316.982760680958;83.33333333333333;8233.649427347624
0.44800000000000034;-1351767556.0;-1335728401.0;211142.0;-4062.5740418384476;-4132.041392090226;41.370427042723804;12091.63880226356;250.0;11841.63880226356
0.45200000000000035;-1367769603.0;-1352091084.0;323528.0;-4000.51164435393;-4090.670965047502;59.155611209054314;15515.599371129383;500.0;15015.599371129383
0.45600000000000035;-1383460284.0;-1368217145.0;447542.0;-3922.670050318414;-4031.5153538384475;73.96774148451732;19460.39850887905;833.3333333333334;18627.06517554572
0.46000000000000035;-1398772612.0;-1384047335.0;587051.0;-3828.081874329305;-3957.54761235393;91.23445803551613;23647.04399727725;1250.0;22397.04399727725
0.46400000000000036;-1413638143.0;-1399512587.0;739975.0;-3716.3824589880765;-3866.313154318414;109.26887998910934;27924.85383530709;1833.3333333333333;26091.520501973755
0.46800000000000036;-1427997009.0;-1414540764.0;902621.0;-3589.7163626649776;-3757.0442743293047;127.31343134122835;31666.524080774707;2500.0;29166.524080774707
0.47200000000000036;-1441800403.0;-1429059687.0;1062678.0;-3450.848415279117;-3629.7308429880763;142.03156832309878;34716.986846465144;3416.6666666666665;31300.32017979848
0.47600000000000037;-1455000697.0;-1443010484.0;1210081.0;-3300.073233535819;-3487.6992746649776;153.01863538586076;37693.79543582454;4333.333333333333;33360.462102491205
0.48000000000000037;-1467565009.0;-1456349206.0;1348509.0;-3141.077903643092;-3334.680639279117;164.0642697432977;39748.83247318167;5500.0;34248.83247318167
0.4840000000000004;-1479467731.0;-1469031671.0;1466662.0;-2975.680516206626;-3170.616369535819;170.33801789272684;41349.34685911651;6666.666666666667;34682.68019244984
0.4880000000000004;-1490690866.0;-1481032784.0;1565053.0;-2805.783481993119;-3000.2783516430923;174.8429234364662;42474.258553376785;8000.0;34474.258553376785
0.4920000000000004;-1501223444.0;-1492334525.0;1643659.0;-2633.1444919573064;-2825.435428206626;177.44321021350697;43159.74750895316;9250.0;33909.74750895316
0.4960000000000004;-1511059964.0;-1502926493.0;1703049.0;-2459.1298103263366;-2647.992217993119;178.34043003581246;43503.67040774245;10666.666666666666;32837.00374107578
0.5000000000000003;-1520198589.0;-1512805100.0;1745136.0;-2284.656142734275;-2469.6517879573066;178.05503363097023;43618.41689801543;12000.0;31618.416898015425
0.5040000000000003;-1528639446.0;-1521971487.0;1772898.0;-2110.214041251016;-2291.5967543263364;177.13881959206128;43610.525370814685;13416.666666666666;30193.85870414802
0.5080000000000003;-1536383349.0;-1530429318.0;1789872.0;-1935.9758105241738;-2114.457934734275;176.07160548325896;43559.5576817106;14750.0;28809.5576817106
