Zeit[sec];Sollposition[°];Istposition[°];Positionsschleppfehler[°];Sollgeschwindigkeit[°/s];Istgeschwindigkeit[°/s];Geschwindigkeitsdifferenz[°/s];Sollbeschleunigung[°/s*s];Istbeschleunigung[°/s*s];Beschleunigungsdifferenz[°/s*s]
0.0;-9979199999.0;-9979199995.0;-4.0;0.0;-0.00023999999999999998;0.0;0.0;0.0;0.0
0.004;-9979199999.0;-9979199995.0;-4.0;0.0;-0.00023999999999999998;0.0;0.0;0.0;0.0
0.008;-9979199999.0;-9979199995.0;-4.0;0.0;-0.00023999999999999998;0.0;0.0;0.0;0.0
0.012;-9979199999.0;-9979199995.0;-4.0;0.0;-0.00023999999999999998;0.0;0.0;0.0;0.0
0.016;-9979199999.0;-9979199995.0;-4.0;0.0;-0.00023999999999999998;0.0;0.0;0.0;0.0
0.02;-9979199999.0;-9979199995.0;-4.0;0.0;-0.00023999999999999998;0.0;0.0;0.0;0.0
0.024;-9979199999.0;-9979199995.0;-4.0;0.0;-0.00023999999999999998;0.0;0.0;0.0;0.0
0.028;-9979199999.0;-9979199995.0;-4.0;0.0;-0.00023999999999999998;0.0;0.0;0.0;0.0
0.032;-9979199999.0;-9979199995.0;-4.0;0.0;-0.00023999999999999998;0.0;0.0;0.0;0.0
0.036000000000000004;-9979199999.0;-9979199995.0;-4.0;0.0;-0.00023999999999999998;0.0;0.0;0.0;0.0
0.04000000000000001;-9979199999.0;-9979199995.0;-4.0;0.0;-0.00023999999999999998;0.0;0.0;0.0;0.0
0.04400000000000001;-9979199999.0;-9979199995.0;-4.0;0.0;-0.00023999999999999998;0.0;0.0;0.0;0.0
0.048000000000000015;-9979199999.0;-9979199995.0;-4.0;0.0;-0.00023999999999999998;0.0;0.0;0.0;0.0
0.05200000000000002;-9979199999.0;-9979199995.0;-4.0;0.0;-0.00023999999999999998;0.0;0.0;0.0;0.0
0.05600000000000002;-9979199999.0;-9979199995.0;-4.0;0.0;-0.00023999999999999998;0.0;0.0;0.0;0.0
0.060000000000000026;-9979256406.0;-9979199995.0;-4.0;-14.1015998547769;-0.00023999999999999998;0.0;-3525.399963694225;0.0;-3525.399963694225
0.06400000000000003;-9979337451.0;-9979199995.0;-56411.0;-20.261284861531724;-0.00023999999999999998;-17.4860198547769;-1539.921251688706;0.0;-1539.921251688706
0.06800000000000003;-9979463255.0;-9979269940.0;-67511.0;-31.45097565371538;-17.4862598547769;-6.825685006754824;-2797.4226980459134;0.0;-2797.4226980459134
0.07200000000000004;-9979620581.0;-9979367187.0;-96068.0;-39.33147732918627;-24.311944861531725;-12.903110792183657;-1970.125418867723;-83.33333333333333;-1886.7920855343898
0.07600000000000004;-9979790110.0;-9979516047.0;-104534.0;-42.38218150165528;-37.21505565371538;-8.388461675470886;-762.6760431172528;-166.66666666666666;-596.0093764505862
0.08000000000000004;-9979964006.0;-9979698461.0;-91649.0;-43.47410154446405;-45.60351732918627;-2.2776041724690117;-272.9800107021916;-250.0;-22.980010702191578
0.08400000000000005;-9980143372.0;-9979889985.0;-74021.0;-44.84157097609228;-47.88112150165528;-0.03424004280876858;-341.86735790705745;-333.3333333333333;-8.534024573724153
0.08800000000000005;-9980322796.0;-9980081646.0;-61726.0;-44.85582753870967;-47.91536154446405;-0.6297694316282332;-3.564140654347625;-333.3333333333333;329.7691926789857
0.09200000000000005;-9980484846.0;-9980275826.0;-46970.0;-40.51247966458443;-48.54513097609228;0.8711034373826152;1085.836968531309;-416.6666666666667;1502.5036351979757
0.09600000000000006;-9980614709.0;-9980466522.0;-18324.0;-32.4659228467516;-47.674027538709666;6.062107874125232;2011.6392044582074;-333.3333333333333;2344.9725377915406
0.10000000000000006;-9980700890.0;-9980632969.0;18260.0;-21.54513052264514;-41.611919664584434;10.241596817832832;2730.1980810266155;-416.6666666666667;3146.864747693282
0.10400000000000006;-9980724225.0;-9980758450.0;57560.0;-5.833820840904426;-31.370322846751602;13.278792324106458;3927.8274204351787;-333.3333333333333;4261.160753768512
0.10800000000000007;-9980673354.0;-9980830816.0;106591.0;12.717710825158026;-18.091530522645144;18.653169681740717;4637.882916515613;-250.0;4887.882916515613
0.11200000000000007;-9980557992.0;-9980828570.0;155216.0;28.840656978641267;0.5616391590955727;21.469031666062453;4030.73653837081;-83.33333333333333;4114.069871704143
0.11600000000000008;-9980399336.0;-9980740448.0;182456.0;39.66381969088545;22.030670825158026;17.75734615348324;2705.790678061045;0.0;2705.790678061045
0.12000000000000008;-9980218375.0;-9980581296.0;181960.0;45.24031546257259;39.78801697864127;10.79340271224418;1394.1239429217856;166.66666666666666;1227.4572762551188
0.12400000000000008;-9980031720.0;-9980378971.0;160596.0;46.66372954359572;50.58141969088545;4.29465577168714;355.8535202557831;250.0;105.8535202557831
0.12800000000000009;-9979851547.0;-9980159467.0;127747.0;45.04316745517412;54.87607546257259;-0.5475259189768664;-405.14052210540007;416.6666666666667;-821.8071887720668
0.1320000000000001;-9979683563.0;-9979942153.0;90606.0;41.995990257760326;54.32854954359572;-3.8490220884215987;-761.7942993534488;416.6666666666667;-1178.4609660201154
0.1360000000000001;-9979533393.0;-9979740235.0;56672.0;37.54273261287726;50.47952745517412;-5.083217197413795;-1113.3144112207667;416.6666666666667;-1529.9810778874335
0.1400000000000001;-9979414239.0;-9979558650.0;25257.0;29.788418563810918;45.39631025776033;-6.3381576448830685;-1938.5785122665852;416.6666666666667;-2355.245178933252
0.1440000000000001;-9979335879.0;-9979402418.0;-11821.0;19.589986814718042;39.05815261287726;-9.97899404906634;-2549.607937273219;333.3333333333333;-2882.9412706065523
0.1480000000000001;-9979295132.0;-9979286102.0;-49777.0;10.186838419915972;29.079158563810918;-12.475791749092874;-2350.7870987005176;333.3333333333333;-2684.1204320338506
0.1520000000000001;-9979281093.0;-9979219689.0;-75443.0;3.5096076298930448;16.603366814718044;-10.94310839480207;-1669.3076975057318;166.66666666666666;-1835.9743641723985
0.1560000000000001;-9979281794.0;-9979197048.0;-84045.0;-0.17534498128674864;5.660258419915973;-7.193350790022928;-921.2381527949483;83.33333333333333;-1004.5714861282817
0.16000000000000011;-9979287845.0;-9979203180.0;-78614.0;-1.5125685792815633;-1.5330923701069552;-3.359092611179793;-334.30589949870364;0.0;-334.30589949870364
0.16400000000000012;-9979293775.0;-9979222748.0;-65097.0;-1.4826334434002135;-4.892184981286748;-0.5262035979948152;7.483783970337443;0.0;7.483783970337443
0.16800000000000012;-9979297525.0;-9979244421.0;-49354.0;-0.9374973645798491;-5.418388579281563;0.97451513588135;136.2840197050911;0.0;136.2840197050911
0.17200000000000013;-9979299107.0;-9979262196.0;-35329.0;-0.3954814002136656;-4.443873443400213;1.3866360788203647;135.50399109154588;0.0;135.50399109154588
0.17600000000000013;-9979299339.0;-9979274424.0;-24683.0;-0.05807225668419836;-3.0572373645798487;1.180775964366183;84.35228588236681;0.0;84.35228588236681
0.18000000000000013;-9979299048.0;-9979281929.0;-17410.0;0.07276472519528372;-1.8764614002136657;0.7737891435294673;32.709245469870524;0.0;32.709245469870524
0.18400000000000014;-9979298750.0;-9979286339.0;-12709.0;0.07462765107688314;-1.1026722566841984;0.4128969818794823;0.46573147039985496;0.0;0.46573147039985496
0.18800000000000014;-9979298642.0;-9979289098.0;-9652.0;0.027080894504692563;-0.6897752748047161;0.18528292588159934;-11.886689143047645;0.0;-11.886689143047645
0.19200000000000014;-9979298721.0;-9979291115.0;-7527.0;-0.019948134623832554;-0.5044923489231168;0.0799532434278094;-11.75725728213128;0.0;-11.75725728213128
0.19600000000000015;-9979298911.0;-9979292813.0;-5908.0;-0.04738788274837898;-0.4245391054953074;0.05011097087147487;-6.8599370311366075;0.0;-6.8599370311366075
0.20000000000000015;-9979299134.0;-9979294310.0;-4601.0;-0.055645055235516924;-0.3744281346238325;0.050980251875453575;-2.0642931217844853;0.0;-2.0642931217844853
0.20400000000000015;-9979299344.0;-9979295603.0;-3531.0;-0.052580439124127784;-0.32344788274837893;0.055942827512862;0.766154027847285;83.33333333333333;-82.56717930548605
0.20800000000000016;-9979299527.0;-9979296673.0;-2671.0;-0.04586867743413112;-0.26750505523551693;0.054664616111389175;1.677940422499167;250.0;-248.32205957750082
0.21200000000000016;-9979299688.0;-9979297524.0;-2003.0;-0.04005947347840093;-0.21284043912412776;0.04679176168999666;1.452300988932547;333.3333333333333;-331.88103234440075
0.21600000000000016;-9979299834.0;-9979298188.0;-1500.0;-0.03664668376327554;-0.1660486774341311;0.03598920395573019;0.8531974287813472;416.6666666666667;-415.81346923788533
0.22000000000000017;-9979299975.0;-9979298708.0;-1126.0;-0.03530283396086687;-0.1300594734784009;0.025852789715125377;0.3359624506021671;333.3333333333333;-332.99737088273116
0.22400000000000017;-9979300116.0;-9979299124.0;-851.0;-0.03509192629292689;-0.10420668376327553;0.017843849802408676;0.05272691698499608;416.6666666666667;-416.61393974968166
0.22800000000000017;-9979300257.0;-9979299469.0;-647.0;-0.035196599049368636;-0.08636283396086686;0.012450907667939978;-0.026168189110437404;333.3333333333333;-333.35950152244374
0.23200000000000018;-9979300397.0;-9979299764.0;-493.0;-0.035164998158754276;-0.07391192629292688;0.009135327243558242;0.00790022265358993;333.3333333333333;-333.32543311067974
0.23600000000000018;-9979300537.0;-9979300023.0;-374.0;-0.03486783841057517;-0.06477659904936864;0.00717160089061436;0.0742899370447768;166.66666666666666;-166.5923767296219
0.24000000000000019;-9979300674.0;-9979300253.0;-284.0;-0.03435560361257932;-0.05760499815875428;0.005697159748179109;0.12805869949896256;83.33333333333333;-83.20527463383436
0.2440000000000002;-9979300809.0;-9979300460.0;-214.0;-0.03373122662556929;-0.05190783841057517;0.004712234797995853;0.15609424675250805;0.0;0.15609424675250805
0.2480000000000002;-9979300941.0;-9979300648.0;-161.0;-0.03307858051825099;-0.047195603612579316;0.0038043769870100344;0.16316152682957497;-83.33333333333333;83.4964948601629
0.25200000000000017;-9979301071.0;-9979300821.0;-120.0;-0.032441222986444855;-0.04339122662556928;0.0031126461073182968;0.159339382951533;-250.0;250.15933938295154
0.25600000000000017;-9979301198.0;-9979300982.0;-89.0;-0.03182958388216913;-0.040278580518250985;0.0024973575318061325;0.15290977606893102;-416.6666666666667;416.81957644273564
0.2600000000000002;-9979301323.0;-9979301133.0;-65.0;-0.031236757868369543;-0.03778122298644485;0.002051639104275721;0.14820650344989691;-416.6666666666667;416.8148731701166
0.2640000000000002;-9979301446.0;-9979301275.0;-48.0;-0.030651593166180553;-0.03572958388216913;0.0016128260137995912;0.14629117554724752;-416.6666666666667;416.8129578422139
0.2680000000000002;-9979301566.0;-9979301411.0;-35.0;-0.030065596314899783;-0.03411675786836954;0.0013651647021889896;0.1464992128201925;-333.3333333333333;333.4798325461535
0.2720000000000002;-9979301684.0;-9979301542.0;-24.0;-0.029474654466692896;-0.03275159316618055;0.0012459968512807673;0.14773546205172194;-416.6666666666667;416.8144021287184
0.2760000000000002;-9979301800.0;-9979301668.0;-16.0;-0.02887802665107871;-0.031505596314899784;0.001070941848206889;0.14915695390354655;-250.0;250.14915695390354
0.2800000000000002;-9979301913.0;-9979301789.0;-11.0;-0.02827661686358585;-0.030434654466692895;0.0008966278156141844;0.15035244687321495;-166.66666666666666;166.81701911353989
0.2840000000000002;-9979302023.0;-9979301907.0;-6.0;-0.027671645050941118;-0.02953802665107871;0.0009014097874928614;0.15124295316118302;0.0;0.15124295316118302
0.2880000000000002;-9979302132.0;-9979302021.0;-2.0;-0.027063984911982888;-0.02863661686358585;0.0008449718126447327;0.15191503473955745;0.0;0.15191503473955745
0.2920000000000002;-9979302237.0;-9979302132.0;0.0;-0.026454040691120864;-0.027791645050941116;0.0007276601389582284;0.15248605521550607;0.0;0.15248605521550607
0.2960000000000002;-9979302341.0;-9979302240.0;3.0;-0.02584187500151487;-0.027063984911982888;0.0007899442208620239;0.1530414224014988;0.0;0.1530414224014988
0.3000000000000002;-9979302442.0;-9979302345.0;4.0;-0.025227396664554282;-0.026274040691120864;0.0006721656896059962;0.15361958424014652;0.0;0.15361958424014652
0.3040000000000002;-9979302540.0;-9979302447.0;5.0;-0.024610493726755205;-0.025601875001514868;0.0006744783369605871;0.15422573444976925;0.0;0.15422573444976925
0.3080000000000002;-9979302636.0;-9979302546.0;6.0;-0.02399109982393901;-0.02492739666455428;0.0006769029377990746;0.15484847570404903;0.0;0.15484847570404903
0.3120000000000002;-9979302730.0;-9979302643.0;7.0;-0.023369194469772318;-0.024250493726755206;0.0006793939028161972;0.15547633854167286;0.0;0.15547633854167286
0.3160000000000002;-9979302821.0;-9979302737.0;7.0;-0.022744794399569716;-0.02357109982393901;0.0006219053541666915;0.15610001755065034;0.0;0.15610001755065034
0.32000000000000023;-9979302909.0;-9979302828.0;7.0;-0.02211793048710127;-0.022949194469772317;0.0006244000702026013;0.15671597811711158;0.0;0.15671597811711158
0.32400000000000023;-9979302995.0;-9979302917.0;8.0;-0.021488633029057208;-0.022324794399569716;0.0006868639124684474;0.15732436451101547;0.0;0.15732436451101547
0.32800000000000024;-9979303078.0;-9979303003.0;8.0;-0.020856929725268595;-0.02163793048710127;0.0006292974580440619;0.1579258259471533;0.0;0.1579258259471533
0.33200000000000024;-9979303159.0;-9979303087.0;9.0;-0.020222839907909212;-0.021008633029057207;0.0006917033037886107;0.1585224543398456;0.0;0.1585224543398456
0.33600000000000024;-9979303238.0;-9979303168.0;9.0;-0.019586383486232633;-0.020316929725268596;0.0006340898173593824;0.1591141054191449;0.0;0.1591141054191449
0.34000000000000025;-9979303313.0;-9979303246.0;8.0;-0.018947576618473655;-0.019682839907909214;0.000576456421676582;0.1597017169397445;0.0;0.1597017169397445
0.34400000000000025;-9979303387.0;-9979303322.0;9.0;-0.018306436617026692;-0.01910638348623263;0.0006988068677589755;0.16028500036174062;0.0;0.16028500036174062
0.34800000000000025;-9979303457.0;-9979303395.0;8.0;-0.01766298137136598;-0.018407576618473656;0.0005811400014469649;0.16086381141517792;0.0;0.16086381141517792
0.35200000000000026;-9979303525.0;-9979303466.0;9.0;-0.017017228770965762;-0.01782643661702669;0.0007034552456607092;0.16143815010005463;0.0;0.16143815010005463
0.35600000000000026;-9979303591.0;-9979303534.0;9.0;-0.0163691984365397;-0.017122981371365982;0.0006457526004002186;0.16200758360651515;0.0;0.16200758360651515
0.36000000000000026;-9979303654.0;-9979303599.0;8.0;-0.01571890941172166;-0.016477228770965763;0.000588030334426063;0.16257225620451043;0.0;0.16257225620451043
0.36400000000000027;-9979303714.0;-9979303662.0;8.0;-0.015066381317225328;-0.0158891984365397;0.0006502890248180401;0.16313202362408302;0.0;0.16313202362408302
0.36800000000000027;-9979303772.0;-9979303722.0;8.0;-0.014411632908144645;-0.01523890941172166;0.0006525280944963321;0.16368710227017066;0.0;0.16368710227017066
0.3720000000000003;-9979303827.0;-9979303780.0;8.0;-0.01375468495935292;-0.014586381317225328;0.0006547484090806827;0.16423698719793137;0.0;0.16423698719793137
0.3760000000000003;-9979303879.0;-9979303835.0;8.0;-0.013095556225944108;-0.013931632908144646;0.0006569479487917255;0.16478218335220282;0.0;0.16478218335220282
0.3800000000000003;-9979303929.0;-9979303888.0;9.0;-0.012434267194251607;-0.01327468495935292;0.0007191287334088123;0.16532225792312544;0.0;0.16532225792312544
0.3840000000000003;-9979303976.0;-9979303938.0;9.0;-0.011770836330829464;-0.012555556225944108;0.0006612890316925017;0.1658577158555356;0.0;0.1658577158555356
0.3880000000000003;-9979304020.0;-9979303985.0;9.0;-0.011105286141790426;-0.011894267194251606;0.0006634308634221424;0.16638754725975968;0.0;0.16638754725975968
0.3920000000000003;-9979304062.0;-9979304029.0;9.0;-0.01043763307390919;-0.011230836330829464;0.0006655501890390388;0.166913266970309;0.0;0.166913266970309
0.3960000000000003;-9979304101.0;-9979304071.0;9.0;-0.00976790165307785;-0.010565286141790425;0.000667653067881236;0.16743285520783502;0.0;0.16743285520783502
0.4000000000000003;-9979304138.0;-9979304110.0;9.0;-0.009096110057310548;-0.009897633073909189;0.0006697314208313401;0.16794789894182538;0.0;0.16794789894182538
0.4040000000000003;-9979304171.0;-9979304146.0;8.0;-0.008422279061480588;-0.009227901653077849;0.0006117915957673005;0.1684577489574901;0.0;0.1684577489574901
0.4080000000000003;-9979304202.0;-9979304180.0;9.0;-0.007746429440461275;-0.008616110057310548;0.0007338309958299614;0.1689624052548281;0.0;0.1689624052548281
0.4120000000000003;-9979302778.0;-9979304211.0;9.0;0.35617443333045584;-0.007882279061480587;0.0006758496210193116;90.98021569272927;0.0;90.98021569272927
0.4160000000000003;-9979296094.0;-9979304239.0;1461.0;1.6709762383079507;-0.007206429440461275;0.4510408627709171;328.7004512443737;0.0;328.7004512443737
0.4200000000000003;-9979281054.0;-9979302464.0;6370.0;3.759852083872923;0.4438344333304558;1.609341804977495;522.218961391243;0.0;522.218961391243
0.4240000000000003;-9979199999.0;-9979294252.0;13198.0;20.263679455374056;2.053176238307951;2.4985558455649715;4125.956842875284;0.0;4125.956842875284
0.4280000000000003;-9979199999.0;-9979276046.0;76047.0;0.0;4.551732083872922;20.274767371501135;-5065.919863843514;0.0;-5065.919863843514
0.43200000000000033;-9979111796.0;-9979176741.0;-23258.0;22.050854482849612;24.826499455374055;-26.221979455374054;5512.713620712403;0.0;5512.713620712403
0.43600000000000033;-9978993248.0;-9979182322.0;70526.0;29.637006083066936;-1.3954799999999998;27.67789448284961;1896.537900054331;0.0;1896.537900054331
0.44000000000000034;-9978851711.0;-9979077193.0;83945.0;35.384308085125745;26.28241448284961;8.391291600217322;1436.8255005147023;83.33333333333333;1353.492167181369
0.44400000000000034;-9978696658.0;-9978938499.0;86788.0;38.76329087258411;34.67370608306693;5.9178820020588105;844.7456968645905;166.66666666666666;678.0790301979239
0.44800000000000034;-9978537084.0;-9978776133.0;79475.0;39.89343998980485;40.59158808512574;2.940202787458368;282.5372793051848;333.3333333333333;-50.79605402814852
0.45200000000000035;-9978381333.0;-9978602006.0;64922.0;38.937833716391886;43.53179087258411;0.25696911722073423;-238.9015683532403;333.3333333333333;-572.2349016865736
0.45600000000000035;-9978234356.0;-9978426851.0;45518.0;36.7441704636302;43.788759989804845;-2.1198462734129606;-548.415813190422;333.3333333333333;-881.7491465237553
0.46000000000000035;-9978101611.0;-9978260176.0;25820.0;33.186248099348504;41.668913716391884;-3.3755432527616875;-889.4805910704235;333.3333333333333;-1222.8139244037568
0.46400000000000036;-9977994375.0;-9978107003.0;5392.0;26.809055303958893;38.2933704636302;-4.783602364281691;-1594.2981988474028;333.3333333333333;-1927.631532180736
0.46800000000000036;-9977920752.0;-9977972964.0;-21411.0;18.405738883188242;33.509768099348506;-7.985372795389612;-2100.8291051926626;333.3333333333333;-2434.162438525996
0.47200000000000036;-9977878246.0;-9977870867.0;-49885.0;10.62644784104484;25.524395303958894;-10.111756420770652;-1944.8227605358506;250.0;-2194.8227605358506
0.47600000000000037;-9977858122.0;-9977809217.0;-69029.0;5.030943275824017;15.412638883188242;-8.927931042143403;-1398.8761413052057;166.66666666666666;-1565.5428079718724
0.48000000000000037;-9977850794.0;-9977783279.0;-74843.0;1.8321053286969826;6.48470784104484;-5.944344565220823;-799.7094867817585;83.33333333333333;-883.0428201150919
0.4840000000000004;-9977853150.0;-9977781118.0;-69676.0;-0.5891350442028235;0.5403632758240171;-2.888817947127034;-605.3100932249515;0.0;-605.3100932249515
0.4880000000000004;-9977872273.0;-9977790511.0;-62639.0;-4.780664645446314;-2.348454671303017;-1.999020372899806;-1047.8824003108725;0.0;-1047.8824003108725
0.4920000000000004;-9977915639.0;-9977807900.0;-64373.0;-10.841465144215837;-4.347475044202823;-4.29556960124349;-1515.2001246923808;0.0;-1515.2001246923808
0.4960000000000004;-9977985506.0;-9977842472.0;-73167.0;-17.46676160204204;-8.643044645446313;-6.588440498769524;-1656.3241144565511;0.0;-1656.3241144565511
0.5000000000000003;-9978082832.0;-9977903397.0;-82109.0;-24.331589734601163;-15.231485144215837;-7.161816457826204;-1716.2070331397806;-83.33333333333333;-1632.8736998064471
0.5040000000000003;-9978205772.0;-9977992970.0;-89862.0;-30.735077576825475;-22.39330160204204;-7.330008132559122;-1600.871960556078;-83.33333333333333;-1517.5386272227447
