Zeit[sec];Sollposition[°];Istposition[°];Positionsschleppfehler[°];Sollgeschwindigkeit[°/s];Istgeschwindigkeit[°/s];Geschwindigkeitsdifferenz[°/s];Sollbeschleunigung[°/s*s];Istbeschleunigung[°/s*s];Beschleunigungsdifferenz[°/s*s]
0.0;-9979199999.0;-9979199995.0;-4.0;0.0;-0.00023999999999999998;0.0;0.0;0.0;0.0
0.004;-9979199999.0;-9979199995.0;-4.0;0.0;-0.00023999999999999998;0.0;0.0;0.0;0.0
0.008;-9979199999.0;-9979199995.0;-4.0;0.0;-0.00023999999999999998;0.0;0.0;0.0;0.0
0.012;-9979199999.0;-9979199995.0;-4.0;0.0;-0.00023999999999999998;0.0;0.0;0.0;0.0
0.016;-9979199999.0;-9979199995.0;-4.0;0.0;-0.00023999999999999998;0.0;0.0;0.0;0.0
0.02;-9979199999.0;-9979199995.0;-4.0;0.0;-0.00023999999999999998;0.0;0.0;0.0;0.0
0.024;-9979199999.0;-9979199995.0;-4.0;0.0;-0.00023999999999999998;0.0;0.0;0.0;0.0
0.028;-9979199999.0;-9979199995.0;-4.0;0.0;-0.00023999999999999998;0.0;0.0;0.0;0.0
0.032;-9979199999.0;-9979199995.0;-4.0;0.0;-0.00023999999999999998;0.0;0.0;0.0;0.0
0.036000000000000004;-9979199999.0;-9979199995.0;-4.0;0.0;-0.00023999999999999998;0.0;0.0;0.0;0.0
0.04000000000000001;-9979199999.0;-9979199995.0;-4.0;0.0;-0.00023999999999999998;0.0;0.0;0.0;0.0
0.04400000000000001;-9979199999.0;-9979199995.0;-4.0;0.0;-0.00023999999999999998;0.0;0.0;0.0;0.0
0.048000000000000015;-9979199999.0;-9979199995.0;-4.0;0.0;-0.00023999999999999998;0.0;0.0;0.0;0.0
0.05200000000000002;-9979199999.0;-9979199995.0;-4.0;0.0;-0.00023999999999999998;0.0;0.0;0.0;0.0
0.05600000000000002;-9979199999.0;-9979199995.0;-4.0;0.0;-0.00023999999999999998;0.0;0.0;0.0;0.0
0.060000000000000026;-9979258273.0;-9979199995.0;-4.0;-14.568472404425144;-0.00023999999999999998;0.0;-3642.118101106286;0.0;-3642.118101106286
0.06400000000000003;-9979342000.0;-9979199995.0;-58278.0;-20.931681857943616;-0.00023999999999999998;-18.06491240442514;-1590.802363379618;0.0;-1590.802363379618
0.06800000000000003;-9979471959.0;-9979272255.0;-69745.0;-32.48979217379005;-18.06515240442514;-7.051229453518474;-2889.5275789616085;0.0;-2889.5275789616085
0.07200000000000004;-9979634458.0;-9979372720.0;-99239.0;-40.62456774486403;-25.116381857943615;-13.327750315846437;-2033.693892768495;-83.33333333333333;-1950.3605594351618
0.07600000000000004;-9979809501.0;-9979526496.0;-107962.0;-43.7607485595564;-38.44413217379005;-8.658155571073976;-784.0452036730916;-166.66666666666666;-617.378537006425
0.08000000000000004;-9979988939.0;-9979714905.0;-94596.0;-44.85969305330968;-47.10228774486403;-2.3342208146923653;-274.73612343831985;-333.3333333333333;58.597209895013435
0.08400000000000005;-9980173838.0;-9979912651.0;-76288.0;-46.22468391328689;-49.436508559556394;-0.0004644937532845006;-341.24771499430295;-333.3333333333333;-7.914381660969639
0.08800000000000005;-9980358189.0;-9980110398.0;-63440.0;-46.087705029108776;-49.43697305330968;-0.5941108599772065;34.24472104452825;-416.6666666666667;450.91138771119495
0.09200000000000005;-9980523044.0;-9980310522.0;-47667.0;-41.21378772425095;-50.031083913286885;1.0833588841781108;1218.4793262144567;-333.3333333333333;1551.81265954779
0.09600000000000006;-9980652335.0;-9980506312.0;-16732.0;-32.32267512204795;-48.947725029108774;6.7300173048578245;2222.7781505507505;-416.6666666666667;2639.444817217417
0.10000000000000006;-9980734313.0;-9980675182.0;22847.0;-20.49464487165168;-42.21770772425095;11.265852602203001;2957.0075625990667;-333.3333333333333;3290.3408959324
0.10400000000000006;-9980750104.0;-9980798989.0;64676.0;-3.94775606094222;-30.95185512204795;14.337770250396268;4136.722202677365;-333.3333333333333;4470.055536010698
0.10800000000000007;-9980688994.0;-9980865445.0;115341.0;15.277490006301875;-16.61408487165168;19.58678881070946;4806.3115168110235;-250.0;5056.3115168110235
0.11200000000000007;-9980561802.0;-9980853555.0;164561.0;31.79800513179891;2.972703939057779;22.178446067244096;4130.128781374258;-83.33333333333333;4213.462114707592
0.11600000000000008;-9980391073.0;-9980752951.0;191149.0;42.682265146187284;25.151150006301876;18.11579512549703;2721.0650035970934;0.0;2721.0650035970934
0.12000000000000008;-9980198824.0;-9980579884.0;188811.0;48.06223095228078;43.266945131798906;10.743980014388377;1344.9914515233736;250.0;1094.9914515233736
0.12400000000000008;-9980002449.0;-9980363841.0;165017.0;49.09377872505912;54.01092514618728;3.9523258060934907;257.8869431945847;250.0;7.886943194584717
0.12800000000000009;-9979815056.0;-9980131988.0;129539.0;46.84826565719049;57.963250952280774;-1.0971322272216568;-561.3782669671572;416.6666666666667;-978.0449336338239
0.1320000000000001;-9979642903.0;-9979904524.0;89468.0;43.03836908431329;56.86611872505912;-4.6497730678686295;-952.4741432193;416.6666666666667;-1369.1408098859667
0.1360000000000001;-9979491384.0;-9979695659.0;52756.0;37.87976259534821;52.21634565719049;-6.012616572877199;-1289.6516222412693;500.0;-1789.6516222412693
0.1400000000000001;-9979373062.0;-9979510845.0;19461.0;29.580317503059973;46.20372908431329;-7.156306488965079;-2074.8612730720597;416.6666666666667;-2491.527939738726
0.1440000000000001;-9979296973.0;-9979354656.0;-18406.0;19.02244675185196;39.04742259534821;-10.571465092288236;-2639.4676878020036;333.3333333333333;-2972.8010211353367
0.1480000000000001;-9979259099.0;-9979240753.0;-56220.0;9.46841766199092;28.475957503059973;-12.826710751208015;-2388.50727246526;250.0;-2638.50727246526
0.1520000000000001;-9979199999.0;-9979178157.0;-80942.0;14.774859299794564;15.649246751851958;-11.037349089861038;1326.610409450911;166.66666666666666;1159.9437427842445
0.1560000000000001;-9979199999.0;-9979159710.0;-40289.0;0.0;4.61189766199092;7.745621637803644;-3693.714824948641;83.33333333333333;-3777.0481582819743
0.16000000000000011;-9979256873.0;-9979110280.0;-89719.0;-14.218295851584143;12.357519299794564;-17.740659299794565;-3554.573962896036;0.0;-3554.573962896036
0.16400000000000012;-9979262880.0;-9979131812.0;-125061.0;-1.501793538604928;-5.383139999999999;-16.338815851584144;3179.125578244804;0.0;3179.125578244804
0.16800000000000012;-9979266364.0;-9979218699.0;-44181.0;-0.8709798720220897;-21.72195585158414;17.569302312979215;157.70341664570955;0.0;157.70341664570955
0.17200000000000013;-9979267598.0;-9979235309.0;-31055.0;-0.3084660701729945;-4.152653538604928;1.4183736665828381;140.6284504622738;0.0;140.6284504622738
0.17600000000000013;-9979267534.0;-9979246246.0;-21352.0;0.015885847637393927;-2.7342798720220896;1.1446938018490953;81.08797945259711;0.0;81.08797945259711
0.18000000000000013;-9979267033.0;-9979252604.0;-14930.0;0.12518949184586803;-1.5895860701729942;0.7096719178103883;27.325911052118524;0.0;27.325911052118524
0.18400000000000014;-9979266592.0;-9979256123.0;-10910.0;0.11023522097826714;-0.879914152362606;0.350503644208474;-3.7385677169002216;0.0;-3.7385677169002216
0.18800000000000014;-9979266376.0;-9979258240.0;-8352.0;0.05404397614557872;-0.5294105081541319;0.13852572913239908;-14.047811208172105;0.0;-14.047811208172105
0.19200000000000014;-9979266357.0;-9979259803.0;-6573.0;0.004788595600773939;-0.39088477902173285;0.05054875516731161;-12.313845136201197;0.0;-12.313845136201197
0.19600000000000015;-9979266444.0;-9979261164.0;-5193.0;-0.02162340771129646;-0.34033602385442124;0.03354461945519521;-6.6030008280176;0.0;-6.6030008280176
0.20000000000000015;-9979266556.0;-9979262391.0;-4053.0;-0.02810789286442918;-0.30679140439922603;0.041987996687929574;-1.62112128828318;0.0;-1.62112128828318
0.20400000000000015;-9979266651.0;-9979263450.0;-3106.0;-0.02380576804481538;-0.26480340771129646;0.050335514846867296;1.0755312049034504;166.66666666666666;-165.5911354617632
0.20800000000000016;-9979266718.0;-9979264307.0;-2344.0;-0.016687785158212436;-0.21446789286442916;0.050022124819613795;1.7794957216507357;250.0;-248.22050427834927
0.21200000000000016;-9979266762.0;-9979264964.0;-1754.0;-0.011094359712592245;-0.16444576804481537;0.04251798288660294;1.3983563614050478;416.6666666666667;-415.26831030526165
0.21600000000000016;-9979266795.0;-9979265451.0;-1311.0;-0.008191477721112762;-0.12192778515821243;0.032173425445620185;0.7257204978698708;333.3333333333333;-332.60761283546344
0.22000000000000017;-9979266825.0;-9979265810.0;-985.0;-0.007405345262239949;-0.08975435971259224;0.022462881991479486;0.19653311471820328;416.6666666666667;-416.4701335519485
0.22400000000000017;-9979266855.0;-9979266079.0;-746.0;-0.0076830034637248145;-0.06729147772111276;0.015126132458872815;-0.06941455037121633;333.3333333333333;-333.40274788370454
0.22800000000000017;-9979266888.0;-9979266287.0;-568.0;-0.008187916850120505;-0.05216534526223994;0.010402341798515125;-0.12622834659892268;416.6666666666667;-416.7928950132656
0.23200000000000018;-9979266922.0;-9979266454.0;-434.0;-0.008495889054234524;-0.041763003463724815;0.0075350866136043165;-0.0769930510285048;250.0;-250.0769930510285
0.23600000000000018;-9979266956.0;-9979266590.0;-332.0;-0.008513364473701825;-0.0342279168501205;0.0058120277958859795;-0.004368854866825152;250.0;-250.0043688548668
0.24000000000000019;-9979266990.0;-9979266703.0;-253.0;-0.008315890358211927;-0.02841588905423452;0.004722524580532697;0.049368528872474615;83.33333333333333;-83.28396480446085
0.2440000000000002;-9979267022.0;-9979266797.0;-193.0;-0.00801742410133394;-0.023693364473701822;0.0037974741154898975;0.07461656421949665;0.0;0.07461656421949665
0.2480000000000002;-9979267052.0;-9979266876.0;-146.0;-0.00770293291510113;-0.019895890358211925;0.0031184662568779845;0.07862279655820241;-166.66666666666666;166.74528946322485
0.25200000000000017;-9979267082.0;-9979266943.0;-109.0;-0.007412654843703917;-0.01677742410133394;0.0025344911862328103;0.07256951784930335;-333.3333333333333;333.40590285118265
0.25600000000000017;-9979267111.0;-9979266999.0;-83.0;-0.007153215917566591;-0.01424293291510113;0.0018502780713972149;0.06485973153433139;-416.6666666666667;416.731526398201
0.2600000000000002;-9979267138.0;-9979267048.0;-63.0;-0.006915192423326619;-0.012392654843703915;0.0014594389261373235;0.05950587355999307;-500.0;500.05950587356
0.2640000000000002;-9979267165.0;-9979267091.0;-47.0;-0.006686403071730286;-0.010933215917566592;0.001198023494239973;0.05719733789908321;-416.6666666666667;416.72386400456577
0.2680000000000002;-9979267191.0;-9979267129.0;-36.0;-0.006458317757507027;-0.009735192423326619;0.0008887893515963328;0.05702132855581492;-416.6666666666667;416.7236879952225
0.2720000000000002;-9979267216.0;-9979267164.0;-27.0;-0.006227198157621783;-0.008846403071730286;0.0007680853142232585;0.057779899971311006;-333.3333333333333;333.3911132333046
0.2760000000000002;-9979267240.0;-9979267196.0;-20.0;-0.00599268705966969;-0.008078317757507027;0.0006511195998852451;0.05862777448802309;-250.0;250.05862777448803
0.2800000000000002;-9979267263.0;-9979267225.0;-15.0;-0.005755925638982924;-0.007427198157621782;0.0005345110979520923;0.059190355171691515;-83.33333333333333;83.39252368850502
0.2840000000000002;-9979267285.0;-9979267252.0;-11.0;-0.005518209151203996;-0.00689268705966969;0.00047676142068676583;0.05942912194473204;0.0;0.05942912194473204
0.2880000000000002;-9979267306.0;-9979267277.0;-8.0;-0.00528039455985669;-0.006415925638982924;0.00041771648777892776;0.0594536478368264;-83.33333333333333;83.39278698117016
0.2920000000000002;-9979267326.0;-9979267300.0;-6.0;-0.005042827535749587;-0.005998209151203996;0.0003578145913473059;0.059391756026775905;-83.33333333333333;83.3927250893601
0.2960000000000002;-9979267345.0;-9979267322.0;-4.0;-0.0048055161580000845;-0.0056403945598566905;0.00035756702410710394;0.05932784443737557;0.0;0.05932784443737557
0.3000000000000002;-9979267364.0;-9979267343.0;-2.0;-0.004568330872189939;-0.0052828275357495865;0.00035731137774950173;0.05929632145253638;83.33333333333333;-83.2740370118808
0.3040000000000002;-9979267381.0;-9979267362.0;-2.0;-0.004331140104121561;-0.004925516158000085;0.00023718528581014552;0.05929769201709449;83.33333333333333;-83.27403564131623
0.3080000000000002;-9979267397.0;-9979267380.0;-1.0;-0.00409386219700127;-0.004688330872189939;0.0002971907680683781;0.059319476780072836;0.0;0.059319476780072836
0.3120000000000002;-9979267413.0;-9979267397.0;0.0;-0.0038564694509979937;-0.004391140104121561;0.0002972779071202915;0.059348186500818995;0.0;0.059348186500818995
0.3160000000000002;-9979267427.0;-9979267413.0;0.0;-0.0036189690796094073;-0.00409386219700127;0.00023739274600327598;0.05937509284714661;0.0;0.05937509284714661
0.32000000000000023;-9979267441.0;-9979267428.0;1.0;-0.0033813783952299304;-0.0038564694509979937;0.00029750037138858657;0.05939767109486922;0.0;0.05939767109486922
0.32400000000000023;-9979267453.0;-9979267442.0;1.0;-0.003143715864413612;-0.003558969079609407;0.0002375906843794769;0.05941563270407961;0.0;0.05941563270407961
0.32800000000000024;-9979267465.0;-9979267455.0;2.0;-0.0029059918745971023;-0.00332137839522993;0.00029766253081631817;0.059430997454127395;0.0;0.059430997454127395
0.33200000000000024;-9979267476.0;-9979267467.0;2.0;-0.002668214793437705;-0.003023715864413612;0.00023772398981650959;0.059444270289849284;0.0;0.059444270289849284
0.33600000000000024;-9979267485.0;-9979267478.0;2.0;-0.0024303843323955137;-0.0027859918745971025;0.00023777708115939713;0.059457615260547866;0.0;0.059457615260547866
0.34000000000000025;-9979267494.0;-9979267488.0;3.0;-0.002192504242489319;-0.0025482147934377053;0.00029783046104219163;0.05947002247654867;0.0;0.05947002247654867
0.34400000000000025;-9979267502.0;-9979267497.0;3.0;-0.0019545765434984693;-0.0022503843323955137;0.00023788008990619468;0.05948192474771244;0.0;0.05948192474771244
0.34800000000000025;-9979267509.0;-9979267505.0;3.0;-0.0017166018125027794;-0.002012504242489319;0.00023792769899084977;0.059493682748922486;0.0;0.059493682748922486
0.35200000000000026;-9979267515.0;-9979267512.0;3.0;-0.0014785855317604815;-0.0017745765434984693;0.00023797473099568993;0.059504070185574465;0.0;0.059504070185574465
0.35600000000000026;-9979267520.0;-9979267518.0;3.0;-0.001240529721050925;-0.0015366018125027793;0.00023801628074229786;0.05951395267738915;0.0;0.05951395267738915
0.36000000000000026;-9979267524.0;-9979267523.0;3.0;-0.0010024387084727148;-0.0012985855317604815;0.0002380558107095566;0.059522753144552534;0.0;0.059522753144552534
0.36400000000000027;-9979267527.0;-9979267527.0;3.0;-0.0007643156679648279;-0.0010605297210509249;0.00023809101257821013;0.05953076012697172;0.0;0.05953076012697172
0.36800000000000027;-9979267529.0;-9979267530.0;3.0;-0.0005261640620061483;-0.0008224387084727147;0.00023812304050788678;0.059537901489669885;0.0;0.059537901489669885
0.3720000000000003;-9979267530.0;-9979267532.0;3.0;-0.0002879867759957459;-0.0005843156679648279;0.00023815160595867959;0.05954432150260061;0.0;0.05954432150260061
0.3760000000000003;-9979267530.0;-9979267533.0;3.0;-4.9788426572132724e-05;-0.00034616406200614836;0.00023817728601040243;0.059549587355903294;0.0;0.059549587355903294
0.3800000000000003;-9979267529.0;-9979267533.0;3.0;0.0001884289664853423;-0.00010798677599574592;0.00023819834942361318;0.059554348264368756;0.0;0.059554348264368756
0.3840000000000003;-9979267528.0;-9979267533.0;4.0;0.0004266604979982602;0.00013021157342786726;0.00029821739305747506;0.05955788287822947;0.0;0.05955788287822947
0.3880000000000003;-9979267525.0;-9979267532.0;4.0;0.0006649050138069931;0.0004284289664853423;0.00023823153151291787;0.05956112895218323;0.0;0.05956112895218323
0.3920000000000003;-9979267522.0;-9979267530.0;5.0;0.0009031567431134007;0.0006666604979982602;0.000298244515808733;0.05956293232660189;0.0;0.05956293232660189
0.3960000000000003;-9979267517.0;-9979267527.0;5.0;0.0011414142432179483;0.0009649050138069932;0.00023825172930640745;0.059564375026136894;0.0;0.059564375026136894
0.4000000000000003;-9979267511.0;-9979267523.0;6.0;0.0013796728974821242;0.0012031567431134006;0.00029825750010454774;0.05956466356604398;0.0;0.05956466356604398
0.4040000000000003;-9979267505.0;-9979267517.0;6.0;0.0016179292434270439;0.0015014142432179483;0.0002382586542641757;0.05956408648622992;0.0;0.05956408648622992
0.4080000000000003;-9979267498.0;-9979267511.0;6.0;0.0018561806841935445;0.001739672897482124;0.0002382563459449199;0.05956286019162516;0.0;0.05956286019162516
0.4120000000000003;-9979267489.0;-9979267504.0;6.0;0.002094423468762835;0.001977929243427044;0.00023825144076650064;0.059560696142322664;0.0;0.059560696142322664
0.4160000000000003;-9979267480.0;-9979267496.0;7.0;0.0023326547117358465;0.0022161806841935446;0.0002982427845692904;0.059557810743252816;0.0;0.059557810743252816
0.4200000000000003;-9979267470.0;-9979267486.0;6.0;0.0025708697964740655;0.002514423468762835;0.00017823124297301155;0.05955377118455475;0.0;0.05955377118455475
0.4240000000000003;-9979267458.0;-9979267476.0;6.0;0.0028090664146582364;0.0026926547117358465;0.000238215084738219;0.05954915454604273;0.0;0.05954915454604273
0.4280000000000003;-9979267446.0;-9979267465.0;7.0;0.003047241103809476;0.0029308697964740655;0.00029819661818417066;0.05954367228780985;0.0;0.05954367228780985
0.43200000000000033;-9979267433.0;-9979267453.0;7.0;0.0032853901129089925;0.003229066414658236;0.0002381746891512394;0.05953725227487918;0.0;0.05953725227487918
0.43600000000000033;-9979267419.0;-9979267440.0;7.0;0.0035235099794779018;0.0034672411038094756;0.0002381490090995167;0.05952996664222732;0.0;0.05952996664222732
0.44000000000000034;-9979267404.0;-9979267426.0;7.0;0.0037615983951969495;0.0037053901129089923;0.0002381198665689097;0.059522103929761934;0.0;0.059522103929761934
0.44400000000000034;-9979267388.0;-9979267411.0;7.0;0.003999649589267995;0.003943509979477902;0.00023808841571904774;0.05951279851776131;0.0;0.05951279851776131
0.44800000000000034;-9979267371.0;-9979267395.0;7.0;0.004237662407531408;0.00418159839519695;0.00023805119407104523;0.059503204565853215;0.0;0.059503204565853215
0.45200000000000035;-9979267353.0;-9979267378.0;7.0;0.004475632810428494;0.004419649589267995;0.00023801281826341288;0.05949260072427151;0.0;0.05949260072427151
0.45600000000000035;-9979267334.0;-9979267360.0;7.0;0.004713557335480366;0.004657662407531408;0.00023797040289708603;0.05948113126296806;0.0;0.05948113126296806
0.46000000000000035;-9979267314.0;-9979267341.0;7.0;0.0049514322316682345;0.004895632810428494;0.00023792452505187224;0.05946872404696715;0.0;0.05946872404696715
0.46400000000000036;-9979267294.0;-9979267321.0;7.0;0.005189255190672845;0.005133557335480366;0.0002378748961878686;0.05945573975115262;0.0;0.05945573975115262
0.46800000000000036;-9979267272.0;-9979267300.0;6.0;0.005427021307315776;0.005371432231668235;0.00017782295900461032;0.05944152916073273;0.0;0.05944152916073273
0.47200000000000036;-9979267249.0;-9979267278.0;6.0;0.005664728273277772;0.005549255190672845;0.00023776611664293092;0.059426741490499;0.0;0.059426741490499
0.47600000000000037;-9979267226.0;-9979267255.0;6.0;0.00590237262607995;0.005787021307315776;0.000237706965961996;0.05941108820054462;0.0;0.05941108820054462
0.48000000000000037;-9979267201.0;-9979267231.0;5.0;0.006139950903243425;0.006024728273277772;0.00017764435280217834;0.059394569290868726;0.0;0.059394569290868726
0.4840000000000004;-9979267176.0;-9979267207.0;6.0;0.006377458488129688;0.00620237262607995;0.00029757827716347506;0.059376896221565584;0.0;0.059376896221565584
0.4880000000000004;-9979267149.0;-9979267182.0;6.0;0.006614894515119012;0.006499950903243425;0.00023750758488626234;0.05935900674733114;0.0;0.05935900674733114
0.4920000000000004;-9979267122.0;-9979267156.0;7.0;0.00685225350195317;0.006737458488129688;0.0002974360269893247;0.05933974670853945;0.0;0.05933974670853945
0.4960000000000004;-9979267093.0;-9979267128.0;6.0;0.007089532851772997;0.007034894515119012;0.00017735898683415765;0.05931983745495668;0.0;0.05931983745495668
0.5000000000000003;-9979267064.0;-9979267100.0;7.0;0.007326728525019794;0.00721225350195317;0.00029727934981982687;0.059298918311699415;0.0;0.059298918311699415
