Zeit[sec];Sollposition[°];Istposition[°];Positionsschleppfehler[°];Sollgeschwindigkeit[°/s];Istgeschwindigkeit[°/s];Geschwindigkeitsdifferenz[°/s];Sollbeschleunigung[°/s*s];Istbeschleunigung[°/s*s];Beschleunigungsdifferenz[°/s*s]
0.0;-9979199999.0;-9979199995.0;-4.0;0.0;-0.00023999999999999998;0.0;0.0;0.0;0.0
0.004;-9979199999.0;-9979199995.0;-4.0;0.0;-0.00023999999999999998;0.0;0.0;0.0;0.0
0.008;-9979199999.0;-9979199995.0;-4.0;0.0;-0.00023999999999999998;0.0;0.0;0.0;0.0
0.012;-9979199999.0;-9979199995.0;-4.0;0.0;-0.00023999999999999998;0.0;0.0;0.0;0.0
0.016;-9979199999.0;-9979199995.0;-4.0;0.0;-0.00023999999999999998;0.0;0.0;0.0;0.0
0.02;-9979199999.0;-9979199995.0;-4.0;0.0;-0.00023999999999999998;0.0;0.0;0.0;0.0
0.024;-9979199999.0;-9979199995.0;-4.0;0.0;-0.00023999999999999998;0.0;0.0;0.0;0.0
0.028;-9979199999.0;-9979199995.0;-4.0;0.0;-0.00023999999999999998;0.0;0.0;0.0;0.0
0.032;-9979199999.0;-9979199995.0;-4.0;0.0;-0.00023999999999999998;0.0;0.0;0.0;0.0
0.036000000000000004;-9979199999.0;-9979199995.0;-4.0;0.0;-0.00023999999999999998;0.0;0.0;0.0;0.0
0.04000000000000001;-9979199999.0;-9979199995.0;-4.0;0.0;-0.00023999999999999998;0.0;0.0;0.0;0.0
0.04400000000000001;-9979199999.0;-9979199995.0;-4.0;0.0;-0.00023999999999999998;0.0;0.0;0.0;0.0
0.048000000000000015;-9979199999.0;-9979199995.0;-4.0;0.0;-0.00023999999999999998;0.0;0.0;0.0;0.0
0.05200000000000002;-9979200570.0;-9979199995.0;-4.0;-0.14267623910137803;-0.00023999999999999998;0.0;-35.66905977534451;0.0;-35.66905977534451
0.05600000000000002;-9979206258.0;-9979199995.0;-575.0;-1.4218647267510816;-0.00023999999999999998;-0.17693623910137804;-319.7971219124259;0.0;-319.7971219124259
0.060000000000000026;-9979382166.0;-9979200703.0;-5555.0;-43.97697530660157;-0.17717623910137803;-1.5779884876497035;-10638.777644962622;0.0;-10638.777644962622
0.06400000000000003;-9979702087.0;-9979207723.0;-174443.0;-79.98046894939849;-1.7551647267510815;-52.688390579850484;-9000.873410699229;0.0;-9000.873410699229
0.06800000000000003;-9980293763.0;-9979425497.0;-276590.0;-147.91899033726094;-54.44355530660157;-42.132313642796916;-16984.630346965612;-83.33333333333333;-16901.29701363228
0.07200000000000004;-9981193517.0;-9979811800.0;-481963.0;-224.93831885667805;-96.57586894939848;-80.26090138786245;-19254.83212985428;-333.3333333333333;-18921.498796520944
0.07600000000000004;-9982468863.0;-9980519147.0;-674370.0;-318.8364324669617;-176.83677033726093;-88.56374851941712;-23474.52840257091;-833.3333333333334;-22641.19506923758
0.08000000000000004;-9984277944.0;-9981580749.0;-888114.0;-452.2702530692539;-265.40051885667805;-106.72275361028363;-33358.45515057305;-1416.6666666666667;-31941.788483906384
0.08400000000000005;-9986795182.0;-9983069242.0;-1208702.0;-629.3095812017601;-372.1232724669617;-152.66910060229225;-44259.83203312656;-2166.6666666666665;-42093.16536645989
0.08800000000000005;-9990173858.0;-9985168411.0;-1626771.0;-844.6688131170964;-524.7923730692539;-202.12346813250622;-53839.80797883408;-3000.0;-50839.80797883408
0.09200000000000005;-9994542080.0;-9988076074.0;-2097784.0;-1092.0556059283151;-726.9158412017601;-243.62001191533625;-61846.69820280468;-4250.0;-57596.69820280468
0.09600000000000006;-10000019184.0;-9991958217.0;-2583863.0;-1369.2758996206624;-970.5358531170964;-276.55153281121875;-69305.07342308681;-5750.0;-63555.07342308681
0.10000000000000006;-10006711320.0;-9996946566.0;-3072618.0;-1673.0339030705054;-1247.0873859283151;-306.5455936923472;-75939.50086246076;-7666.666666666667;-68272.8341957941
0.10400000000000006;-10014689030.0;-10003161097.0;-3550223.0;-1994.42747271334;-1553.6329796206624;-332.4143034498429;-80348.39241070863;-9833.333333333334;-70515.0590773753
0.10800000000000007;-10023997472.0;-10010705286.0;-3983744.0;-2327.110458888383;-1886.0472830705053;-347.40482964283456;-83170.7465437608;-12250.0;-70920.7465437608
0.11200000000000007;-10034654501.0;-10019639094.0;-4358378.0;-2664.257126804533;-2233.45211271334;-355.1610261750434;-84286.66697903747;-14750.0;-69536.66697903747
0.11600000000000008;-10046629319.0;-10029993546.0;-4660955.0;-2993.7043263074197;-2588.613138888383;-355.3012879161497;-82361.79987572166;-17416.666666666668;-64945.13320905499
0.12000000000000008;-10059855142.0;-10041769203.0;-4860116.0;-3306.455594405312;-2943.914426804533;-341.39685950288685;-78187.81702447301;-20166.666666666668;-58021.15035780635
0.12400000000000008;-10074245656.0;-10054910448.0;-4944694.0;-3597.6282883208823;-3285.31128630742;-317.8259480978918;-72793.17347889264;-23000.0;-49793.17347889264
0.12800000000000009;-10089692097.0;-10069322996.0;-4922660.0;-3861.610113185526;-3603.1372344053116;-289.85065391557055;-65995.45621616096;-25666.666666666668;-40328.78954949429
0.1320000000000001;-10106062741.0;-10084894947.0;-4797150.0;-4092.6606212528623;-3892.987888320882;-256.45122486464425;-57762.62701683402;-28083.333333333332;-29679.293683500684
0.1360000000000001;-10123212960.0;-10101492703.0;-4570038.0;-4287.554513575779;-4149.439113185526;-217.4237880673354;-48723.473080729265;-30333.333333333332;-18390.13974739593
0.1400000000000001;-10140996642.0;-10118960154.0;-4252806.0;-4445.920462193076;-4366.862901252862;-175.8599723229172;-39591.48715432412;-32250.0;-7341.487154324113
0.1440000000000001;-10159266676.0;-10137131045.0;-3865597.0;-4567.508266229243;-4542.722873575779;-135.13340861729648;-30396.951009041913;-34000.0;3603.0489909580865
0.1480000000000001;-10177889967.0;-10155842470.0;-3424206.0;-4655.82249975079;-4677.8562821930755;-95.10434403616819;-22078.558380386537;-35416.666666666664;13338.108286280125
0.1520000000000001;-10196767900.0;-10174934312.0;-2955655.0;-4719.482989043483;-4772.960626229244;-60.20117352154557;-15915.122323173364;-36500.0;20584.877676826636
0.1560000000000001;-10215822586.0;-10194266959.0;-2500941.0;-4763.671250751178;-4833.161799750789;-36.377649292693604;-11047.065426923837;-37250.0;26202.934573076163
0.16000000000000011;-10234983262.0;-10213745116.0;-2077470.0;-4790.168722630106;-4869.539449043483;-18.78000170769519;-6624.367969731793;-37666.666666666664;31042.29869693487
0.16400000000000012;-10254194144.0;-10233298393.0;-1684869.0;-4802.720314912028;-4888.319450751178;-2.9414118789272834;-3137.89807048056;-38000.0;34862.10192951944
0.16800000000000012;-10273419472.0;-10252863436.0;-1330708.0;-4806.331802442409;-4891.260862630105;8.698067718077255;-902.8718825952637;-38083.333333333336;37180.461450738076
0.17200000000000013;-10292641265.0;-10272393687.0;-1025785.0;-4805.447929317857;-4882.562794912028;14.683892469619423;220.96828113785705;-38166.666666666664;38387.63494780452
0.17600000000000013;-10311854031.0;-10291865202.0;-776063.0;-4803.191314302542;-4867.878902442409;15.867193124550795;564.1537538288048;-38083.333333333336;38647.48708716214
0.18000000000000013;-10331058925.0;-10311273248.0;-580783.0;-4801.223275091185;-4852.011709317858;13.973415015315368;492.00980283922036;-38083.333333333336;38575.34313617255
0.18400000000000014;-10350259234.0;-10330625401.0;-433524.0;-4800.077107855305;-4838.038294302542;10.803579211356919;286.54180897001424;-37916.666666666664;38203.20847563668
0.18800000000000014;-10369457867.0;-10349934339.0;-324895.0;-4799.657923307131;-4827.2347150911855;7.663907235880288;104.79613704364965;-37833.333333333336;37938.12947037698
0.19200000000000014;-10388656511.0;-10369212622.0;-245245.0;-4799.660934380911;-4819.570807855305;5.19818454817414;-0.752768445181573;-37666.666666666664;37665.91389822148
0.19600000000000015;-10407855763.0;-10388470112.0;-186399.0;-4799.812780246288;-4814.372623307131;3.5277489262198287;-37.96146634408615;-37500.0;37462.03853365591
0.20000000000000015;-10427055583.0;-10407713491.0;-142272.0;-4799.954745650882;-4810.844874380911;2.495774134623389;-35.49135114849378;-37166.666666666664;37131.17531551817
0.20400000000000015;-10446255713.0;-10426946887.0;-108696.0;-4800.032289780239;-4808.349100246288;1.8725945954065537;-19.386032339298254;-36750.0;36730.6139676607
0.20800000000000016;-10465455920.0;-10446172793.0;-82920.0;-4800.051453732934;-4806.476505650881;1.469015870642579;-4.790988173681399;-36166.666666666664;36161.87567849299
0.21200000000000016;-10484656076.0;-10465392822.0;-63098.0;-4800.038770377894;-4805.007489780239;1.170156047304772;3.170838759842809;-35500.0;35503.17083875984
0.21600000000000016;-10503856148.0;-10484608171.0;-47905.0;-4800.0178831090625;-4803.837333732934;0.9242633550393293;5.221817207939239;-34500.0;34505.22181720794
0.22000000000000017;-10523056156.0;-10503819823.0;-36325.0;-4800.001701126859;-4802.913070377895;0.7156872688319709;4.045495550826672;-33333.333333333336;33337.37882888416
0.22400000000000017;-10542256132.0;-10523028612.0;-27544.0;-4799.99364958176;-4802.197383109063;0.5430419822032491;2.0128862747696985;-31666.666666666668;31668.679552941438
0.22800000000000017;-10561456100.0;-10542235229.0;-20903.0;-4799.991963621154;-4801.654341126859;0.4065115450994199;0.4214901514387748;-29916.666666666668;29917.088156818107
0.23200000000000018;-10580656075.0;-10561440220.0;-15880.0;-4799.993469442256;-4801.24782958176;0.30306596060563606;-0.3764552755001205;-27666.666666666668;27666.29021139117
0.23600000000000018;-10599856059.0;-10580643999.0;-12076.0;-4799.99565994432;-4800.944763621154;0.22673417889836855;-0.5476255159919674;-25333.333333333332;25332.78570781734
0.24000000000000019;-10619056049.0;-10599846871.0;-9188.0;-4799.997269007309;-4800.718029442256;0.17108949793600914;-0.4022657471978164;-22666.666666666668;22666.26440091947
0.2440000000000002;-10638256042.0;-10619049058.0;-6991.0;-4799.998018440666;-4800.54693994432;0.13021093701081554;-0.1873583391898137;-20000.0;19999.81264166081
0.2480000000000002;-10657456035.0;-10638250724.0;-5318.0;-4799.998132272545;-4800.416729007309;0.09963056664309988;-0.028457969847295317;-17333.333333333332;17333.304875363487
0.25200000000000017;-10676656028.0;-10657451992.0;-4043.0;-4799.99794730346;-4800.317098440666;0.07638616812073451;0.04624227130989311;-14583.333333333334;14583.379575604644
0.25600000000000017;-10695856020.0;-10676652954.0;-3074.0;-4799.99771395489;-4800.240712272545;0.05832496908533358;0.05833714249092736;-11916.666666666666;11916.725003809157
0.2600000000000002;-10715056011.0;-10695853683.0;-2337.0;-4799.997550589943;-4800.18238730346;0.04445334856973204;0.0408412367960409;-9416.666666666666;9416.707507903462
0.2640000000000002;-10734256002.0;-10715054234.0;-1777.0;-4799.997476878383;-4800.13793395489;0.03376336494784482;0.01842788992689748;-7166.666666666667;7166.685094556594
0.2680000000000002;-10753455992.0;-10734254650.0;-1352.0;-4799.99746555377;-4800.104170589942;0.025573711559445655;0.0028311533242231235;-5166.666666666667;5166.669497819991
0.2720000000000002;-10772655983.0;-10753454964.0;-1028.0;-4799.997481366333;-4800.078596878383;0.019451324613328325;-0.003953140776502551;-3500.0;3499.9960468592235
0.2760000000000002;-10791855974.0;-10772655200.0;-783.0;-4799.997499653416;-4800.05914555377;0.014684187436614593;-0.004571770659822505;-2083.3333333333335;2083.3287615626737
0.2800000000000002;-10811055965.0;-10791855377.0;-597.0;-4799.99750963632;-4800.044461366333;0.011141712917378754;-0.0024957259938673815;-1083.3333333333333;1083.3308376073394
0.2840000000000002;-10830255956.0;-10811055510.0;-455.0;-4799.997510255526;-4800.033319653416;0.008510017096341471;-0.00015480168258363847;-250.0;249.99984519831742
0.2880000000000002;-10849455947.0;-10830255609.0;-347.0;-4799.9975047588405;-4800.024809636319;0.006479380793280143;0.0013741714610659983;166.66666666666666;-166.6652924952056
0.2920000000000002;-10868655938.0;-10849455682.0;-265.0;-4799.997496821685;-4800.018330255526;0.004925496685245889;0.001984288928724709;500.0;-499.9980157110713
0.2960000000000002;-10887855929.0;-10868655735.0;-203.0;-4799.997488872411;-4800.013404758841;0.0037279371563272434;0.0019873184555763146;666.6666666666666;-666.664679348211
0.3000000000000002;-10907055920.0;-10887855773.0;-156.0;-4799.997481875895;-4800.0096768216845;0.0028279492735237;0.0017491290691395989;666.6666666666666;-666.6649175375975
0.3040000000000002;-10926255910.0;-10907055800.0;-120.0;-4799.99747585753;-4800.006848872411;0.002166996516280051;0.0015045911823108327;583.3333333333334;-583.3318287421511
0.3080000000000002;-10945455901.0;-10926255818.0;-92.0;-4799.9974704335555;-4800.004681875895;0.0016860183650351246;0.0013559936178353382;500.0;-499.99864400638216
0.3120000000000002;-10964655892.0;-10945455829.0;-72.0;-4799.997465234645;-4800.00299585753;0.0012054239741701167;0.001299727728110156;416.6666666666667;-416.6653669389386
0.3160000000000002;-10983855883.0;-10964655836.0;-56.0;-4799.9974600143805;-4800.0017904335555;0.0009651989112171577;0.0013050660072622122;333.3333333333333;-333.33202826732605
0.32000000000000023;-11003055873.0;-10983855839.0;-44.0;-4799.99745470236;-4800.000825234644;0.000725220264030213;0.0013280050552566536;250.0;-249.99867199494474
0.32400000000000023;-11022255864.0;-11003055839.0;-34.0;-4799.997449292814;-4800.00010001438;0.0006053120196156669;0.0013523865618481068;166.66666666666666;-166.6653142801048
0.32800000000000024;-11041455855.0;-11022255836.0;-28.0;-4799.997443829022;-4799.999494702361;0.0003654095462479745;0.001365948037346243;83.33333333333333;-83.33196738529598
0.33200000000000024;-11060655846.0;-11041455832.0;-23.0;-4799.9974383571525;-4799.999129292814;0.00030546379275619984;0.0013679673429578543;83.33333333333333;-83.33196536599037
0.33600000000000024;-11079855836.0;-11060655827.0;-19.0;-4799.997432897399;-4799.998823829022;0.00024547186876588967;0.0013649382708535995;83.33333333333333;-83.33196839506247
0.34000000000000025;-11099055827.0;-11079855821.0;-15.0;-4799.997427449766;-4799.998578357153;0.00024545975338696735;0.001361908289254643;83.33333333333333;-83.33197142504407
0.34400000000000025;-11118255817.0;-11099055814.0;-13.0;-4799.99742202233;-4799.998332897399;0.0001254476328540477;0.0013568590020440752;0.0;0.0013568590020440752
0.34800000000000025;-11137455808.0;-11118255806.0;-11.0;-4799.997416607013;-4799.998207449767;0.00012542743661470013;0.001353829247818794;0.0;0.001353829247818794
0.35200000000000026;-11156655799.0;-11137455798.0;-10.0;-4799.997411201507;-4799.99808202233;6.541531638504239e-05;0.001351376567981788;0.0;0.001351376567981788
0.35600000000000026;-11175855789.0;-11156655790.0;-9.0;-4799.9974057977315;-4799.998016607014;6.540550657518907e-05;0.0013509438758774195;0.0;0.0013509438758774195
0.36000000000000026;-11195055780.0;-11175855781.0;-8.0;-4799.997400403767;-4799.997951201507;6.540377580677159e-05;0.0013484911960404133;0.0;0.0013484911960404133
0.36400000000000027;-11214255770.0;-11195055772.0;-8.0;-4799.997395009224;-4799.997885797731;5.393964784161653e-06;0.0013486355783243198;0.0;0.0013486355783243198
0.36800000000000027;-11233455761.0;-11214255763.0;-7.0;-4799.997389631995;-4799.997880403766;6.539454170706449e-05;0.0013443072930385824;0.0;0.0013443072930385824
0.3720000000000003;-11252655751.0;-11233455754.0;-7.0;-4799.997384252456;-4799.997815009225;5.37722917215433e-06;0.0013448848221742082;0.0;0.0013448848221742082
0.3760000000000003;-11271855741.0;-11252655745.0;-6.0;-4799.997378886769;-4799.997809631996;6.537953959195875e-05;0.0013414216937235324;0.0;0.0013414216937235324
0.3800000000000003;-11291055732.0;-11271855735.0;-6.0;-4799.997373522235;-4799.997744252456;5.3656867748941295e-06;0.0013411336112767458;0.0;0.0013411336112767458
0.3840000000000003;-11310255722.0;-11291055725.0;-7.0;-4799.997368170974;-4799.997738886769;-5.463546585815493e-05;0.0013378150924836518;0.0;0.0013378150924836518
0.3880000000000003;-11329455713.0;-11310255716.0;-6.0;-4799.997362823175;-4799.997793522235;6.535126067319652e-05;0.0013369499356485903;0.0;0.0013369499356485903
0.3920000000000003;-11348655703.0;-11329455706.0;-7.0;-4799.997357486917;-4799.997728170974;-5.465220056066755e-05;0.0013340643363335403;0.0;0.0013340643363335403
0.3960000000000003;-11367855693.0;-11348655697.0;-6.0;-4799.9973521523925;-4799.997782823175;6.533625764859607e-05;0.001333631189481821;0.0;0.001333631189481821
0.4000000000000003;-11387055684.0;-11367855687.0;-6.0;-4799.997346835178;-4799.997717486917;5.334524757927284e-06;0.0013293035863171099;0.0;0.0013293035863171099
0.4040000000000003;-11406255674.0;-11387055677.0;-7.0;-4799.997341517965;-4799.9977121523925;-5.4682785957993474e-05;0.0013293033589434344;0.0;0.0013293033589434344
0.4080000000000003;-11425455664.0;-11406255668.0;-6.0;-4799.997336215179;-4799.9977668351785;6.531721373903565e-05;0.0013256965303298784;0.0;0.0013256965303298784
0.4120000000000003;-11444655654.0;-11425455658.0;-6.0;-4799.997330912393;-4799.997701517965;5.302786121319514e-06;0.001325696302956203;0.0;0.001325696302956203
0.4160000000000003;-11463855645.0;-11444655648.0;-6.0;-4799.997325626918;-4799.997696215179;5.302785211824812e-06;0.0013213689271651674;0.0;0.0013213689271651674
0.4200000000000003;-11483055635.0;-11463855638.0;-7.0;-4799.997320347792;-4799.997690912393;-5.4714524594601244e-05;0.0013197814041632228;83.33333333333333;-83.33201355192917
0.4240000000000003;-11502253327.0;-11483055628.0;-7.0;-4799.42292733662;-4799.997745626918;5.279125616652891e-06;143.5982527930264;83.33333333333333;60.264919459693076
0.4280000000000003;-11521441822.0;-11502255618.0;2291.0;-4797.123466003602;-4799.997740347792;0.7122730111723286;574.8653332545928;83.33333333333333;491.53199992125946
0.43200000000000033;-11540612120.0;-11521452759.0;10937.0;-4792.574328681375;-4799.28546733662;2.8182213330183004;1137.2843305566676;0.0;1137.2843305566676
0.43600000000000033;-11559738838.0;-11540638627.0;26507.0;-4781.679139661994;-4796.467246003602;5.483337322227271;2723.7972548452944;0.0;2723.7972548452944
0.44000000000000034;-11578762411.0;-11559802562.0;63724.0;-4755.892969794627;-4790.9839086813745;13.128209019380847;6446.54246684172;0.0;6446.54246684172
0.44400000000000034;-11597648050.0;-11578913984.0;151573.0;-4721.409706261436;-4777.855699661994;31.057109867366307;8620.81588329761;83.33333333333333;8537.482549964276
0.44800000000000034;-11616186290.0;-11597901178.0;253128.0;-4634.559626202904;-4746.798589794627;40.57656353319089;21712.520014633126;166.66666666666666;21545.853347966462
0.45200000000000035;-11634404323.0;-11616726066.0;539776.0;-4554.508188737706;-4706.222026261436;104.04896005853243;20012.85936629938;416.6666666666667;19596.192699632713
0.45600000000000035;-11652138262.0;-11635134758.0;730435.0;-4433.484560181918;-4602.173066202904;91.49097746519783;30255.90713894712;833.3333333333334;29422.57380561379
0.46000000000000035;-11669250227.0;-11653177486.0;1039224.0;-4277.991015890174;-4510.682088737706;139.55096855578813;38873.386072936;1500.0;37373.386072936
0.46400000000000036;-11685592317.0;-11670662010.0;1411783.0;-4085.5222704389644;-4371.131120181918;177.84708429174407;48117.186362802386;2416.6666666666665;45700.51969613572
0.46800000000000036;-11701009099.0;-11687435146.0;1842829.0;-3854.1953735529896;-4193.284035890174;218.33150545120952;57831.724221493685;3500.0;54331.724221493685
0.47200000000000036;-11715357243.0;-11703334956.0;2325857.0;-3587.0356411753314;-3974.9525304389645;260.3085768859746;66789.93309441455;4916.666666666667;61873.26642774788
0.47600000000000037;-11728527311.0;-11718193531.0;2836288.0;-3292.5169099880254;-3714.64395355299;297.7855923776583;73629.6827968265;6500.0;67129.6827968265
0.48000000000000037;-11740428391.0;-11731860964.0;3333653.0;-2975.269784221749;-3416.8583611753315;324.3606311873059;79311.78144156911;8583.333333333334;70728.44810823578
0.4840000000000004;-11750990769.0;-11744230954.0;3802563.0;-2640.594552137641;-3092.4977299880256;345.38172576627676;83668.80802102695;10833.333333333334;72835.47468769363
0.4880000000000004;-11760192607.0;-11755219418.0;4228649.0;-2300.4592757156915;-2747.116004221749;360.24039208410795;85033.81910548739;13416.666666666666;71617.15243882073
