Zeit[sec];Sollposition[°];Istposition[°];Positionsschleppfehler[°];Sollgeschwindigkeit[°/s];Istgeschwindigkeit[°/s];Geschwindigkeitsdifferenz[°/s];Sollbeschleunigung[°/s*s];Istbeschleunigung[°/s*s];Beschleunigungsdifferenz[°/s*s]
0.0;-9979199999.0;-9979199995.0;-4.0;0.0;-0.00023999999999999998;0.0;0.0;0.0;0.0
0.004;-9979199999.0;-9979199995.0;-4.0;0.0;-0.00023999999999999998;0.0;0.0;0.0;0.0
0.008;-9979199999.0;-9979199995.0;-4.0;0.0;-0.00023999999999999998;0.0;0.0;0.0;0.0
0.012;-9979199999.0;-9979199995.0;-4.0;0.0;-0.00023999999999999998;0.0;0.0;0.0;0.0
0.016;-9979199999.0;-9979199995.0;-4.0;0.0;-0.00023999999999999998;0.0;0.0;0.0;0.0
0.02;-9979199999.0;-9979199995.0;-4.0;0.0;-0.00023999999999999998;0.0;0.0;0.0;0.0
0.024;-9979199999.0;-9979199995.0;-4.0;0.0;-0.00023999999999999998;0.0;0.0;0.0;0.0
0.028;-9979199999.0;-9979199995.0;-4.0;0.0;-0.00023999999999999998;0.0;0.0;0.0;0.0
0.032;-9979199999.0;-9979199995.0;-4.0;0.0;-0.00023999999999999998;0.0;0.0;0.0;0.0
0.036000000000000004;-9979199999.0;-9979199995.0;-4.0;0.0;-0.00023999999999999998;0.0;0.0;0.0;0.0
0.04000000000000001;-9979199999.0;-9979199995.0;-4.0;0.0;-0.00023999999999999998;0.0;0.0;0.0;0.0
0.04400000000000001;-9979199999.0;-9979199995.0;-4.0;0.0;-0.00023999999999999998;0.0;0.0;0.0;0.0
0.048000000000000015;-9979199999.0;-9979199995.0;-4.0;0.0;-0.00023999999999999998;0.0;0.0;0.0;0.0
0.05200000000000002;-9979200595.0;-9979199995.0;-4.0;-0.1487857891514803;-0.00023999999999999998;0.0;-37.19644728787008;0.0;-37.19644728787008
0.05600000000000002;-9979206526.0;-9979199995.0;-600.0;-1.4827504991353042;-0.00023999999999999998;-0.18454578915148032;-333.491177495956;0.0;-333.491177495956
0.060000000000000026;-9979395358.0;-9979200734.0;-5792.0;-47.208162376796516;-0.1847857891514803;-1.645484709983824;-11431.352969415302;0.0;-11431.352969415302
0.06400000000000003;-9979736502.0;-9979208055.0;-187303.0;-85.28588430644113;-1.8302704991353043;-56.61607187766121;-9519.430482411155;0.0;-9519.430482411155
0.06800000000000003;-9980363511.0;-9979441840.0;-294662.0;-156.75220339036085;-58.446342376796515;-44.51926192964462;-17866.57977097993;-83.33333333333333;-17783.246437646594
0.07200000000000004;-9981311946.0;-9979853702.0;-509809.0;-237.108734125051;-102.96560430644114;-84.3751390839197;-20089.13268367254;-416.6666666666667;-19672.46601700587
0.07600000000000004;-9982654854.0;-9980603064.0;-708882.0;-335.7269819530828;-187.34074339036084;-92.30091073469015;-24654.561957007958;-833.3333333333334;-23821.228623674622
0.08000000000000004;-9984557287.0;-9981721630.0;-933224.0;-475.6082094241547;-279.641654125051;-112.0787678280318;-34970.30686776798;-1500.0;-33470.30686776798
0.08400000000000005;-9987199549.0;-9983288511.0;-1268776.0;-660.5655326829957;-391.7204219530828;-160.01434747107191;-46239.33081471024;-2166.6666666666665;-44072.66414804358
0.08800000000000005;-9990740522.0;-9985495450.0;-1704099.0;-885.243159489337;-551.7347694241547;-211.076703258841;-56169.40670158533;-3250.0;-52919.40670158533
0.09200000000000005;-9995312530.0;-9988546695.0;-2193827.0;-1143.0020059946828;-762.8114726829957;-254.06130680634135;-64439.711626336444;-4500.0;-59939.711626336444
0.09600000000000006;-10001038994.0;-9992614186.0;-2698344.0;-1431.6158607176842;-1016.8727794893371;-288.0298665053458;-72153.46368075036;-6083.333333333333;-66070.13034741701
0.10000000000000006;-10008026775.0;-9997833796.0;-3205198.0;-1746.9453336069546;-1304.9026459946829;-319.0250947230013;-78832.3682223176;-8000.0;-70832.3682223176
0.10400000000000006;-10016338976.0;-10004329506.0;-3697269.0;-2078.0501259947177;-1623.9277407176842;-344.8537328892703;-82776.19809694079;-10250.0;-72526.19809694079
0.10800000000000007;-10026009969.0;-10012204631.0;-4134345.0;-2417.7479657532645;-1968.7814736069545;-357.32935238776327;-84924.45993963668;-12750.0;-72174.45993963668
0.11200000000000007;-10037048770.0;-10021509074.0;-4500895.0;-2759.7001736870684;-2326.1108259947177;-361.69083975854664;-85488.05198345099;-15416.666666666666;-70071.38531678432
0.11600000000000008;-10049416208.0;-10032260280.0;-4788490.0;-3091.8594206193684;-2687.8016657532644;-359.2079079338041;-83039.811733075;-18166.666666666668;-64873.14506640833
0.12000000000000008;-10063034369.0;-10044448318.0;-4967890.0;-3404.5400837960797;-3047.0095736870685;-342.9232469323001;-78170.16579417782;-21000.0;-57170.16579417782
0.12400000000000008;-10077803063.0;-10058008049.0;-5026320.0;-3692.1734311942746;-3389.9328206193686;-316.1864631767112;-71908.33684954874;-23750.0;-48158.33684954873
0.12800000000000009;-10093599532.0;-10072832526.0;-4970537.0;-3949.11685994348;-3706.11928379608;-284.28636739819467;-64235.85718730135;-26416.666666666668;-37819.19052063468
0.1320000000000001;-10110278836.0;-10088794148.0;-4805384.0;-4169.826025234237;-3990.4056511942745;-247.0342487492053;-55177.291322689256;-28916.666666666668;-26260.624656022588
0.1360000000000001;-10127687667.0;-10105743907.0;-4534929.0;-4352.2073597545495;-4237.43989994348;-204.481865290757;-45595.33363007813;-31083.333333333332;-14512.000296744798
0.1400000000000001;-10145679857.0;-10123511594.0;-4176073.0;-4498.047457389436;-4441.921765234237;-160.84997452031257;-36460.02440872166;-33000.0;-3460.024408721665
0.1440000000000001;-10164112775.0;-10141922680.0;-3757177.0;-4608.229276403816;-4602.771739754549;-120.70633763488695;-27545.454753594866;-34583.333333333336;7037.878579738468
0.1480000000000001;-10182857421.0;-10160816592.0;-3296183.0;-4686.161177478908;-4723.478077389436;-82.52217901437962;-19482.975268773087;-35833.333333333336;16350.358064560247
0.1520000000000001;-10201819270.0;-10180040593.0;-2816828.0;-4740.46193123482;-4806.000256403816;-49.170601075092236;-13575.188438978103;-36833.333333333336;23258.14489435523
0.1560000000000001;-10220926681.0;-10199461276.0;-2357994.0;-4776.85253700384;-4855.170857478908;-26.770713755911856;-9097.6514422548;-37416.666666666664;28319.015224411865
0.16000000000000011;-10240116885.0;-10218989042.0;-1937639.0;-4797.5508208169085;-4881.94157123482;-11.169305769019957;-5174.570953267221;-37916.666666666664;32742.095713399445
0.16400000000000012;-10259341367.0;-10238561485.0;-1555400.0;-4806.12019299088;-4893.11087700384;2.236056186931819;-2142.3430434929287;-38083.333333333336;35940.99028984041
0.16800000000000012;-10278570369.0;-10258124984.0;-1216383.0;-4807.2504314700645;-4890.874820816908;11.77164782602813;-282.5596197960749;-38250.0;37967.44038020392
0.17200000000000013;-10297790843.0;-10277641396.0;-928973.0;-4805.118302275668;-4879.10317299088;16.11436152081569;533.0322985992098;-38166.666666666664;38699.698965265874
0.17600000000000013;-10317000737.0;-10297093351.0;-697492.0;-4802.47307784198;-4862.988811470064;16.02098919439686;661.306108421968;-38083.333333333336;38744.6394417553
0.18000000000000013;-10336203048.0;-10316481222.0;-519515.0;-4800.577645124862;-4846.9678222756675;13.323844433687555;473.8581792794321;-38000.0;38473.85817927943
0.18400000000000014;-10355401676.0;-10335815797.0;-387251.0;-4799.65668056777;-4833.64397784198;9.831272717117827;230.2411392729482;-37916.666666666664;38146.90780593961
0.18800000000000014;-10374599440.0;-10355111047.0;-290629.0;-4799.440869831505;-4823.812705124862;6.718284557091465;53.95268406641662;-37750.0;37803.95268406642
0.19200000000000014;-10393797701.0;-10374379424.0;-220016.0;-4799.564907326329;-4817.094420567771;4.452590736265847;-31.009373706183396;-37666.666666666664;37635.65729296048
0.19600000000000015;-10412996749.0;-10393629991.0;-167710.0;-4799.761931567998;-4812.641829831505;3.014322505175187;-49.25606041706487;-37416.666666666664;37367.4106062496
0.20000000000000015;-10432196366.0;-10412868501.0;-128248.0;-4799.90383857875;-4809.62750732633;2.170695758331931;-35.47675268805506;-37166.666666666664;37131.18991397861
0.20400000000000015;-10451396226.0;-10432098328.0;-98038.0;-4799.964790695692;-4807.456811567998;1.670692989247982;-15.238029235433714;-36666.666666666664;36651.42863743123
0.20800000000000016;-10470596099.0;-10451321472.0;-74754.0;-4799.9679991861685;-4805.78611857875;1.3360878830580987;-0.8021226192340691;-36083.333333333336;36082.5312107141
0.21200000000000016;-10489795884.0;-10470539272.0;-56827.0;-4799.94617966048;-4804.450030695692;1.0724115095226807;5.454881422110702;-35333.333333333336;35338.78821475545
0.21600000000000016;-10508995575.0;-10489752782.0;-43102.0;-4799.9225601039725;-4803.377619186169;0.8453195256888648;5.904889126895796;-34333.333333333336;34339.23822246023
0.22000000000000017;-10528195205.0;-10508962911.0;-32664.0;-4799.907277313685;-4802.53229966048;0.64989955650708;3.8206975718821923;-33083.333333333336;33087.15403090522
0.22400000000000017;-10547394811.0;-10528170440.0;-24765.0;-4799.90118515884;-4801.882400103973;0.4892227902882951;1.5230387111841992;-31500.0;31501.523038711184
0.22800000000000017;-10566594416.0;-10547376012.0;-18799.0;-4799.901060066403;-4801.393177313685;0.3640521548441029;0.031273109243556974;-29500.0;29500.03127310924
0.23200000000000018;-10585794030.0;-10566580128.0;-14288.0;-4799.903295451427;-4801.0291251588405;0.2707850924371087;-0.5588462558989704;-27250.0;27249.4411537441
0.23600000000000018;-10604993653.0;-10585783161.0;-10869.0;-4799.9055348771635;-4800.758340066403;0.20290461497643264;-0.55985643416534;-24750.0;24749.440143565836
0.24000000000000019;-10624193282.0;-10604985382.0;-8271.0;-4799.906838763035;-4800.555435451427;0.15364057426359068;-0.32597146787338716;-22083.333333333332;22083.007361865457
0.2440000000000002;-10643392911.0;-10624186989.0;-6293.0;-4799.907198934127;-4800.401794877163;0.11737611412809201;-0.09004277308122255;-19333.333333333332;19333.24329056025
0.2480000000000002;-10662592540.0;-10643388126.0;-4785.0;-4799.90698175591;-4800.284418763035;0.09011982890842773;0.0542945542747475;-16500.0;16500.054294554277
0.25200000000000017;-10681792167.0;-10662588903.0;-3637.0;-4799.906560023097;-4800.194298934127;0.0690971782169072;0.10543320331635186;-13750.0;13750.105433203316
0.25600000000000017;-10700991793.0;-10681789403.0;-2764.0;-4799.906163741811;-4800.12520175591;0.0528017328133501;0.0990703215393296;-11083.333333333334;11083.432403654873
0.2600000000000002;-10720191417.0;-10700989692.0;-2101.0;-4799.905876348563;-4800.072400023097;0.04017628128622164;0.07184831201811903;-8583.333333333334;8583.405181645352
0.2640000000000002;-10739391041.0;-10720189820.0;-1597.0;-4799.905690423257;-4800.03222374181;0.03052739324812137;0.046481326535285916;-6416.666666666667;6416.713147993202
0.2680000000000002;-10758590664.0;-10739389826.0;-1215.0;-4799.905565292155;-4800.001696348562;0.023105925305571873;0.031282775353247416;-4500.0;4500.031282775353
0.2720000000000002;-10777790287.0;-10758589740.0;-924.0;-4799.905462963208;-4799.978590423257;0.01758513110144122;0.02558223673077009;-2916.6666666666665;2916.6922489033973
0.2760000000000002;-10796989909.0;-10777789584.0;-703.0;-4799.905361370038;-4799.961005292155;0.013362328946641355;0.025398292564204894;-1666.6666666666667;1666.692064959231
0.2800000000000002;-10816189531.0;-10796989374.0;-535.0;-4799.905253404753;-4799.947642963209;0.010181593170273118;0.026991321192326723;-666.6666666666666;666.693657987859
0.2840000000000002;-10835389153.0;-10816189123.0;-408.0;-4799.905140710299;-4799.937461370038;0.007727965285084792;0.028173613600301906;-83.33333333333333;83.36150694693363
0.2880000000000002;-10854588774.0;-10835388841.0;-312.0;-4799.905027765391;-4799.929733404753;0.005872694454410521;0.02823622685355076;416.6666666666667;-416.63843043981313
0.2920000000000002;-10873788394.0;-10854588536.0;-238.0;-4799.9049184393525;-4799.923860710299;0.004552944907118217;0.027331509727446246;583.3333333333334;-583.3060018236059
0.2960000000000002;-10892988014.0;-10873788213.0;-181.0;-4799.904814836213;-4799.919307765392;0.0035293260389153147;0.025900784976329305;750.0;-749.9740992150237
0.3000000000000002;-10912187634.0;-10892987876.0;-138.0;-4799.904717556715;-4799.915778439353;0.0026836031402126537;0.0243198744556139;666.6666666666666;-666.642346792211
0.3040000000000002;-10931387254.0;-10912187528.0;-106.0;-4799.904626340594;-4799.913094836213;0.002017279497522395;0.02280403009535803;583.3333333333334;-583.310529303238
0.3080000000000002;-10950586873.0;-10931387172.0;-82.0;-4799.90454072157;-4799.911077556715;0.0015312161203837604;0.021404756125775748;500.0;-499.9785952438742
0.3120000000000002;-10969786491.0;-10950586810.0;-63.0;-4799.904460300305;-4799.909546340595;0.0012256190248081111;0.020105316252738703;416.6666666666667;-416.64656135041395
0.3160000000000002;-10988986110.0;-10969786443.0;-48.0;-4799.9043848915535;-4799.90832072157;0.00098042126501241;0.018852187849915936;250.0;-249.98114781215008
0.32000000000000023;-11008185728.0;-10988986072.0;-38.0;-4799.904314438765;-4799.907340300305;0.0006754087517037988;0.017613197087484878;166.66666666666666;-166.64905346957917
0.32400000000000023;-11027385346.0;-11008185698.0;-30.0;-4799.904248996182;-4799.906664891553;0.0005504527880475507;0.016360645759050385;83.33333333333333;-83.31697268757428
0.32800000000000024;-11046584964.0;-11027385322.0;-24.0;-4799.904188600741;-4799.906114438765;0.0004254425830367836;0.015098860330908792;166.66666666666666;-166.65156780633575
0.33200000000000024;-11065784581.0;-11046584944.0;-20.0;-4799.904133293988;-4799.905688996182;0.0003003954416271881;0.013826688245899277;83.33333333333333;-83.31950664508743
0.33600000000000024;-11084984198.0;-11065784565.0;-16.0;-4799.904083107665;-4799.9053886007405;0.00029530675237765536;0.012546580592243117;83.33333333333333;-83.32078675274109
0.34000000000000025;-11104183815.0;-11084984185.0;-13.0;-4799.904038035999;-4799.905093293988;0.0002301863223692635;0.011267916534052347;0.0;0.011267916534052347
0.34400000000000025;-11123383432.0;-11104183804.0;-11.0;-4799.903998074955;-4799.904863107666;0.00016507166674273321;0.009990261105485843;0.0;0.009990261105485843
0.34800000000000025;-11142583049.0;-11123383422.0;-10.0;-4799.903963225104;-4799.904698035999;9.996104381571058e-05;0.008712462658877485;0.0;0.008712462658877485
0.35200000000000026;-11161782666.0;-11142583040.0;-9.0;-4799.903933474909;-4799.904598074955;9.484985093877185e-05;0.007437548902089475;0.0;0.007437548902089475
0.35600000000000026;-11180982282.0;-11161782658.0;-8.0;-4799.9039088347545;-4799.904503225104;8.975019591161981e-05;0.006160038537927903;0.0;0.006160038537927903
0.36000000000000026;-11200181899.0;-11180982275.0;-7.0;-4799.903889293101;-4799.904413474908;8.464015354547882e-05;0.004885413318334031;0.0;0.004885413318334031
0.36400000000000027;-11219381515.0;-11200181892.0;-7.0;-4799.9038748505245;-4799.904328834755;1.9541653273336124e-05;0.003610644171203603;83.33333333333333;-83.32972268916212
0.36800000000000027;-11238581131.0;-11219381509.0;-6.0;-4799.903865507602;-4799.9043092931015;7.444257698807633e-05;0.0023357306417892687;83.33333333333333;-83.33099760269154
0.3720000000000003;-11257780748.0;-11238581125.0;-6.0;-4799.903861273568;-4799.9042348505245;9.342922567157075e-06;0.0010585085874481592;83.33333333333333;-83.33227482474588
0.3760000000000003;-11276980364.0;-11257780741.0;-7.0;-4799.903862131686;-4799.904225507602;-5.5765965953469276e-05;-0.00021452956389111932;0.0;-0.00021452956389111932
0.3800000000000003;-11296179981.0;-11276980358.0;-6.0;-4799.903868084841;-4799.904281273568;5.9141882047697436e-05;-0.0014882887171552284;0.0;-0.0014882887171552284
0.3840000000000003;-11315379597.0;-11296179974.0;-7.0;-4799.903879137073;-4799.904222131686;-6.595315517188283e-05;-0.0027630580916593317;0.0;-0.0027630580916593317
0.3880000000000003;-11334579213.0;-11315379591.0;-6.0;-4799.903895280881;-4799.904288084841;4.8947767936624587e-05;-0.004035952088088379;0.0;-0.004035952088088379
0.3920000000000003;-11353778830.0;-11334579207.0;-6.0;-4799.903916509339;-4799.904239137073;-1.6143808352353517e-05;-0.005307114406605251;0.0;-0.005307114406605251
0.3960000000000003;-11372978447.0;-11353778824.0;-6.0;-4799.9039428282185;-4799.904255280881;-2.1228457626421005e-05;-0.006579719865840161;0.0;-0.006579719865840161
0.4000000000000003;-11392178064.0;-11372978441.0;-6.0;-4799.903974231171;-4799.904276509339;-2.6318879463360645e-05;-0.007850738029446802;0.0;-0.007850738029446802
0.4040000000000003;-11411377681.0;-11392178058.0;-6.0;-4799.904010708963;-4799.9043028282185;-3.140295211778721e-05;-0.009119448122874019;0.0;-0.009119448122874019
0.4080000000000003;-11430577298.0;-11411377675.0;-6.0;-4799.904052267365;-4799.904334231171;-3.6477792491496075e-05;-0.010389600447524572;0.0;-0.010389600447524572
0.4120000000000003;-11449776915.0;-11430577292.0;-6.0;-4799.904098889643;-4799.904370708963;-4.155840179009829e-05;-0.01165556955129432;0.0;-0.01165556955129432
0.4160000000000003;-11468976532.0;-11449776909.0;-6.0;-4799.904150590224;-4799.904412267365;-4.662227820517728e-05;-0.01292514525630395;0.0;-0.01292514525630395
0.4200000000000003;-11488176150.0;-11468976526.0;-6.0;-4799.904207343138;-4799.904458889643;-5.17005810252158e-05;-0.014188228533384972;0.0;-0.014188228533384972
0.4240000000000003;-11507373406.0;-11488176144.0;-6.0;-4799.313713512576;-4799.904510590224;-5.675291413353989e-05;147.62345764052043;0.0;147.62345764052043
0.4280000000000003;-11526561245.0;-11507375762.0;2356.0;-4796.959617688314;-4799.904567343138;0.7322138305617045;588.5239560655009;0.0;588.5239560655009
0.43200000000000033;-11545730600.0;-11526572451.0;11206.0;-4792.338488057319;-4799.172353512577;2.8850958242619527;1155.2824077487003;0.0;1155.2824077487003
0.43600000000000033;-11564854658.0;-11545757600.0;27000.0;-4781.014238791043;-4796.287257688315;5.568769630995121;2831.0623165691595;0.0;2831.0623165691595
0.44000000000000034;-11583869737.0;-11564920473.0;65815.0;-4753.769623547251;-4790.7184880573195;13.653149266277069;6811.1538109478715;0.0;6811.1538109478715
0.44400000000000034;-11602694347.0;-11584028734.0;158997.0;-4706.1521199468225;-4777.065338791042;32.83553524379113;11904.375900107198;83.33333333333333;11821.042566773864
0.44800000000000034;-11621242781.0;-11603005653.0;311306.0;-4637.108344377529;-4744.229803547251;56.75604360042871;17260.94389232344;166.66666666666666;17094.277225656773
0.45200000000000035;-11639411868.0;-11621755548.0;512767.0;-4542.271588565763;-4687.473759946823;81.1314355692939;23709.18895294153;500.0;23209.18895294153
0.45600000000000035;-11657075642.0;-11640180917.0;769049.0;-4415.943162150549;-4606.342324377529;110.21367581176582;31582.106603803368;916.6666666666666;30665.4399371367
0.46000000000000035;-11674090931.0;-11658165431.0;1089789.0;-4253.822072800827;-4496.128648565763;145.57282641521397;40530.27233743046;1666.6666666666667;38863.60567076379
0.46400000000000036;-11690303486.0;-11675567654.0;1476723.0;-4053.1385842570417;-4350.555822150549;185.33712934972118;50170.87213594641;2500.0;47670.87213594641
0.46800000000000036;-11705550358.0;-11692228528.0;1925042.0;-3811.7178312515553;-4165.218692800828;227.5826285437861;60355.1882513716;3583.3333333333335;56771.85491803827
0.47200000000000036;-11719682814.0;-11707979072.0;2428714.0;-3533.1136986610895;-3937.6360642570417;271.6410730054863;69651.03314761643;5000.0;64651.03314761643
0.47600000000000037;-11732591319.0;-11722643051.0;2960237.0;-3227.1263006300665;-3665.9949912515553;310.49551259046575;76496.84950775577;6833.333333333333;69663.51617442243
0.48000000000000037;-11744186276.0;-11736065048.0;3473729.0;-2898.7389451710064;-3355.4994786610896;336.7969180310233;82096.838864765;9000.0;73096.838864765
0.4840000000000004;-11754401036.0;-11748139858.0;3953582.0;-2553.6899893390823;-3018.7025606300663;357.17853545905973;86262.23895798103;11416.666666666666;74845.57229131435
0.4880000000000004;-11763223866.0;-11758785954.0;4384918.0;-2205.707473111962;-2661.5240251710065;370.92911583192426;86995.6290567801;13916.666666666666;73078.96239011343
0.4920000000000004;-11770683756.0;-11767948333.0;4724467.0;-1864.9721903802472;-2290.5949093390823;368.3554562271204;85183.82068292868;16750.0;68433.82068292868
