Zeit[sec];Sollposition[°];Istposition[°];Positionsschleppfehler[°];Sollgeschwindigkeit[°/s];Istgeschwindigkeit[°/s];Geschwindigkeitsdifferenz[°/s];Sollbeschleunigung[°/s*s];Istbeschleunigung[°/s*s];Beschleunigungsdifferenz[°/s*s]
0.0;0.0;2.0;-2.0;-0.0;-0.000192;0.0;0.0;0.0;0.0
0.004;0.0;2.0;-2.0;-0.0;-0.000192;0.0;0.0;0.0;0.0
0.008;0.0;2.0;-2.0;-0.0;-0.000192;0.0;0.0;0.0;0.0
0.012;0.0;2.0;-2.0;-0.0;-0.000192;0.0;0.0;0.0;0.0
0.016;0.0;2.0;-2.0;-0.0;-0.000192;0.0;0.0;0.0;0.0
0.02;0.0;2.0;-2.0;-0.0;-0.000192;0.0;0.0;0.0;0.0
0.024;0.0;2.0;-2.0;-0.0;-0.000192;0.0;0.0;0.0;0.0
0.028;0.0;2.0;-2.0;-0.0;-0.000192;0.0;0.0;0.0;0.0
0.032;0.0;2.0;-2.0;-0.0;-0.000192;0.0;0.0;0.0;0.0
0.036000000000000004;0.0;2.0;-2.0;-0.0;-0.000192;0.0;0.0;0.0;0.0
0.04000000000000001;0.0;2.0;-2.0;-0.0;-0.000192;0.0;0.0;0.0;0.0
0.04400000000000001;0.0;2.0;-2.0;-0.0;-0.000192;0.0;0.0;0.0;0.0
0.048000000000000015;0.0;2.0;-2.0;-0.0;-0.000192;0.0;0.0;0.0;0.0
0.05200000000000002;-163.0;2.0;-2.0;-0.04090812886833691;-0.000192;0.0;-10.227032217084227;0.0;-10.227032217084227
0.05600000000000002;-1794.0;2.0;-165.0;-0.4076770302584051;-0.000192;-0.05655612886833691;-91.69222534751705;0.0;-91.69222534751705
0.060000000000000026;-9809.0;-224.0;-1570.0;-2.003815271912583;-0.05674812886833691;-0.5016489013900682;-399.03456041354445;0.0;-399.03456041354445
0.06400000000000003;-137807.0;-2457.0;-7352.0;-31.999374887823947;-0.5583970302584051;-2.1512102416541783;-7498.889903977841;0.0;-7498.889903977841
0.06800000000000003;-329063.0;-13295.0;-124512.0;-47.8142131421142;-2.709607271912583;-41.24291961591137;-3953.7095635725627;0.0;-3953.7095635725627
0.07200000000000004;-656632.0;-189105.0;-139958.0;-81.89213941735656;-43.95252688782395;-17.29765425429025;-8519.48156881059;-83.33333333333333;-8436.148235477258
0.07600000000000004;-1136124.0;-434105.0;-222527.0;-119.87306350987924;-61.2501811421142;-42.004550275242366;-9495.231023130671;-250.0;-9245.231023130671
0.08000000000000004;-1752953.0;-847123.0;-289001.0;-154.20725004142693;-103.25473141735657;-44.36242809252266;-8583.546632886922;-500.0;-8083.5466328869215
0.08400000000000005;-2535793.0;-1437591.0;-315362.0;-195.70992002431345;-147.61715950987923;-36.86484253154771;-10375.66749572163;-833.3333333333334;-9542.334162388295
0.08800000000000005;-3531775.0;-2175519.0;-360274.0;-248.99536171212856;-184.48200204142694;-45.81422198288652;-13321.360421953777;-1083.3333333333333;-12238.027088620443
0.09200000000000005;-4795211.0;-3096703.0;-435072.0;-315.85917338572347;-230.29622402431346;-60.46604968781509;-16715.95291839873;-1500.0;-15215.952918398727
0.09600000000000006;-6372473.0;-4259752.0;-535459.0;-394.31539629887584;-290.76227371212855;-76.50096367359492;-19614.055728288095;-1833.3333333333333;-17780.72239495476
0.10000000000000006;-8299675.0;-5728804.0;-643669.0;-481.80037238739806;-367.26323738572347;-88.8443829131524;-21871.244022130555;-2333.3333333333335;-19537.91068879722
0.10400000000000006;-10602995.0;-7553234.0;-746441.0;-575.8299778938025;-456.1076202988759;-97.35108808852215;-23507.40137660111;-2916.6666666666665;-20590.734709934444
0.10800000000000007;-13300272.0;-9767068.0;-835927.0;-674.3193138725973;-553.458708387398;-102.62026150640452;-24622.333994698693;-3583.3333333333335;-21039.00066136536
0.11200000000000007;-16404370.0;-12391383.0;-908889.0;-776.0245333503582;-656.0789698938025;-105.4936879787947;-25426.30486944023;-4333.333333333333;-21092.971536106896
0.11600000000000008;-19924724.0;-15437673.0;-966697.0;-880.0883788543;-761.5726578725972;-107.25478747776094;-26015.961375985455;-5083.333333333333;-20932.628042652123
0.12000000000000008;-23867382.0;-18912982.0;-1011742.0;-985.6645141953742;-868.8274453503582;-108.38816550394188;-26394.033835268543;-5916.666666666667;-20477.36716860188
0.12400000000000008;-28235346.0;-22821844.0;-1045538.0;-1091.9908413538546;-977.2156108543;-108.82055134107407;-26581.581789620115;-6833.333333333333;-19748.248456286783
0.12800000000000009;-33029452.0;-27165988.0;-1069358.0;-1198.5264253942369;-1086.0361621953741;-108.61304715848041;-26633.896010095556;-7666.666666666667;-18967.229343428888
0.1320000000000001;-38249400.0;-31944584.0;-1084868.0;-1304.9869331939844;-1194.6492093538545;-108.02454404038235;-26615.126949936894;-8500.0;-18115.126949936894
0.1360000000000001;-43894549.0;-37155279.0;-1094121.0;-1411.2872373446833;-1302.6737533942369;-107.34879579974768;-26575.076037674706;-9333.333333333334;-17241.74270434137
0.1400000000000001;-49964356.0;-42795369.0;-1099180.0;-1517.451733004837;-1410.0225491939846;-106.78596815069864;-26541.12391503844;-10166.666666666666;-16374.457248371775
0.1440000000000001;-56458514.0;-48862603.0;-1101753.0;-1623.539377355742;-1516.8085173446832;-106.41150366015381;-26521.911087726265;-11000.0;-15521.911087726266
0.1480000000000001;-63376918.0;-55355483.0;-1103031.0;-1729.601058631444;-1623.220021004837;-106.21033235090499;-26515.420318925466;-11833.333333333334;-14682.08698559213
0.1520000000000001;-70719581.0;-62273204.0;-1103714.0;-1835.6656052124354;-1729.430353355742;-106.12724927570184;-26516.136645247854;-12666.666666666666;-13849.469978581188
0.1560000000000001;-78486552.0;-69615434.0;-1104147.0;-1941.7424976673697;-1835.5576026314438;-106.10611458099152;-26519.223113733573;-13500.0;-13019.223113733573
0.16000000000000011;-86677873.0;-77382088.0;-1104464.0;-2047.8302273441743;-1941.6637172124354;-106.10732445493431;-26521.932419201163;-14333.333333333334;-12188.59908586783
0.16400000000000012;-95293568.0;-85573172.0;-1104701.0;-2153.9237310400345;-2047.7710416673697;-106.11048167680451;-26523.375923965035;-15166.666666666666;-11356.709257298367
0.16800000000000012;-104333643.0;-94188698.0;-1104870.0;-2260.018628996209;-2153.881523344174;-106.10972769586033;-26523.724489043616;-16000.0;-10523.724489043616
0.17200000000000013;-113798094.0;-103228663.0;-1104980.0;-2366.1125842510055;-2259.9912510400345;-106.10545795617418;-26523.488813699147;-16833.333333333332;-9690.155480365815
0.17600000000000013;-123686914.0;-112693049.0;-1105045.0;-2472.2050141230984;-2366.0967089962087;-106.10019525479674;-26523.107468023227;-17666.666666666668;-8856.440801356559
0.18000000000000013;-134000100.0;-122581836.0;-1105078.0;-2578.296274362674;-2472.1969042510054;-106.0955978720931;-26522.815059893903;-18500.0;-8022.815059893901
0.18400000000000014;-144737648.0;-132895006.0;-1105094.0;-2684.386960379287;-2578.2925021230985;-106.09279623957536;-26522.671504153208;-19333.333333333332;-7189.338170819877
0.18800000000000014;-155899559.0;-143632547.0;-1105101.0;-2790.4775321649972;-2684.385298362674;-106.09135801661296;-26522.642946427593;-20166.666666666668;-6355.976279760927
0.19200000000000014;-167485833.0;-154794453.0;-1105106.0;-2896.568216545807;-2790.476656379287;-106.09105178571053;-26522.67109520244;-21000.0;-5522.6710952024405
0.19600000000000015;-179496469.0;-166380723.0;-1105110.0;-3002.659058886555;-2896.5677081649974;-106.0910683808097;-26522.710585187044;-21750.0;-4772.710585187042
0.20000000000000015;-191931470.0;-178391358.0;-1105111.0;-3108.750014445032;-3002.658776545807;-106.09093834074793;-26522.738889619177;-22500.0;-4022.738889619177
0.20400000000000015;-204790835.0;-190826356.0;-1105114.0;-3214.841019944452;-3108.749714886555;-106.09124355847689;-26522.751374855034;-23166.666666666668;-3356.0847081883658
0.20800000000000016;-218073231.0;-203685719.0;-1105116.0;-3320.5989094697966;-3214.840958445032;-106.0911974994201;-26439.472381336145;-23750.0;-2689.472381336145
0.21200000000000016;-231773554.0;-216969447.0;-1103784.0;-3425.0806546248805;-3320.932155944452;-105.63001752534456;-26120.436288770976;-24250.0;-1870.436288770975
0.21600000000000016;-245882992.0;-230675695.0;-1097859.0;-3527.3591873262762;-3426.5621734697966;-103.91294515508389;-25569.63317534894;-24833.333333333332;-736.2998420156082
0.22000000000000017;-260388787.0;-244797595.0;-1085397.0;-3626.448735652415;-3530.4751186248805;-101.08218070139583;-24772.387081534704;-25333.333333333332;560.9462517986294
0.22400000000000017;-275270651.0;-259323824.0;-1064963.0;-3720.4657213968458;-3631.5572993262763;-97.12788432613888;-23504.246436107678;-25750.0;2245.753563892322
0.22800000000000017;-290500324.0;-274238564.0;-1032087.0;-3807.418038300224;-3728.685183652415;-90.86088974443055;-21738.079225844558;-26000.0;4261.920774155442
0.23200000000000018;-306044971.0;-289516748.0;-983576.0;-3886.161705103052;-3819.5460733968457;-82.29526090337822;-19685.916700707025;-26166.666666666668;6480.749965959642
0.23600000000000018;-321868636.0;-305124113.0;-920858.0;-3955.916039821116;-3901.841334300224;-72.72273880282819;-17438.583679516;-26250.0;8811.416320484
0.24000000000000019;-337931830.0;-321022369.0;-846267.0;-4015.798221369132;-3974.564073103052;-62.593598718064186;-14970.545387003995;-26166.666666666668;11196.121279662673
0.2440000000000002;-354192910.0;-337170999.0;-760831.0;-4065.2698475604143;-4037.1576718211163;-51.680325548015844;-12367.906547820552;-25916.666666666668;13548.760118846116
0.2480000000000002;-370611341.0;-353526350.0;-666560.0;-4104.60763798628;-4088.837997369132;-40.42161019128207;-9834.447606466369;-25583.333333333332;15748.885726866964
0.25200000000000017;-387148750.0;-370043388.0;-567953.0;-4134.351867866392;-4129.259607560414;-29.87151842586536;-7436.057470028118;-25083.333333333332;17647.275863305214
0.25600000000000017;-403770114.0;-386679912.0;-468838.0;-4155.340816629878;-4159.13112598628;-20.229189880112244;-5247.237190871374;-24583.333333333332;19336.09614246196
0.2600000000000002;-420447942.0;-403397353.0;-372761.0;-4169.456935163528;-4179.360315866392;-11.76555676348562;-3529.0296334126197;-23916.666666666668;20387.637033254046
0.2640000000000002;-437162940.0;-420161856.0;-286086.0;-4178.749319113584;-4191.125872629877;-5.7953185336509705;-2323.0959875138524;-23333.333333333332;21010.237345819478
0.2680000000000002;-453900624.0;-436949540.0;-213400.0;-4184.420832511686;-4196.921191163528;-2.3145279500549805;-1417.8783495256084;-22583.333333333332;21165.454983807722
0.2720000000000002;-470649785.0;-453746482.0;-154142.0;-4187.289913792763;-4199.235719113583;0.017254601897548127;-717.2703202693356;-21833.333333333332;21116.063013064
0.2760000000000002;-487402805.0;-470543355.0;-106430.0;-4188.2548076691855;-4199.218464511686;1.7112707189226057;-241.2234691055346;-20916.666666666668;20675.443197561133
0.2800000000000002;-504155558.0;-487333383.0;-69422.0;-4188.188064309491;-4197.507193792763;2.5878741235774214;16.685839923638923;-20083.333333333332;20100.019173256973
0.2840000000000002;-520906563.0;-504113060.0;-42498.0;-4187.751164852311;-4194.919319669186;2.65144735969443;109.22486429490164;-19250.0;19359.2248642949
0.2880000000000002;-537655867.0;-520882131.0;-24432.0;-4187.3258046891215;-4192.267872309491;2.171235457180046;106.34004079747683;-18416.666666666668;18523.006707464145
0.2920000000000002;-554404094.0;-537642517.0;-13350.0;-4187.056342693827;-4190.096636852311;1.4892321631896266;67.36549882361942;-17583.333333333332;17650.69883215695
0.2960000000000002;-571151866.0;-554396946.0;-7148.0;-4186.942818202957;-4188.607404689122;0.8648539952946521;28.381122717519247;-16750.0;16778.381122717517
0.3000000000000002;-587899580.0;-571147916.0;-3950.0;-4186.928408701792;-4187.742550693827;0.4205324908698458;3.6023752911660267;-15916.666666666666;15920.269041957832
0.3040000000000002;-604647400.0;-587897204.0;-2376.0;-4186.954838730332;-4187.322018202957;0.16551350116515096;-6.607507134958723;-15083.333333333334;15076.725826198375
0.3080000000000002;-621395341.0;-604645830.0;-1570.0;-4186.984902421674;-4187.156504701792;0.05094597146035085;-7.515922835409583;-14250.0;14242.48407716459
0.3120000000000002;-638143355.0;-621394252.0;-1089.0;-4187.003492575519;-4187.105558730332;0.016112308658193797;-4.647538461313161;-13416.666666666666;13412.019128205353
0.3160000000000002;-654891395.0;-638142609.0;-746.0;-4187.009682995246;-4187.0894464216735;0.014337846154376166;-1.5476049318294827;-12583.333333333334;12581.785728401504
0.32000000000000023;-671639429.0;-654890909.0;-486.0;-4187.008257680755;-4187.075108575519;0.018769580272419262;0.35632862272905186;-11750.0;11750.356328622729
0.32400000000000023;-688387446.0;-671639134.0;-295.0;-4187.004245534411;-4187.056338995247;0.019761314491006488;1.0030365860984602;-10916.666666666666;10917.669703252765
0.32800000000000024;-705135450.0;-688387280.0;-166.0;-4187.000727360966;-4187.036577680756;0.01639614634495956;0.8795433611794579;-10083.333333333334;10084.212876694513
0.33200000000000024;-721883446.0;-705135360.0;-90.0;-4186.998765777428;-4187.020181534411;0.010814173444487096;0.49039588452615135;-9250.0;9250.490395884526
0.33600000000000024;-738631440.0;-721883397.0;-49.0;-4186.998186984621;-4187.009367360966;0.005897583538171602;0.14469820189333404;-8416.666666666666;8416.81136486856
0.34000000000000025;-755379434.0;-738631410.0;-30.0;-4186.998385262889;-4187.003469777428;0.0024027928075156524;-0.049569567181606544;-7583.333333333333;7583.283763766151
0.34400000000000025;-772127430.0;-755379414.0;-20.0;-4186.99881666215;-4187.001066984621;0.0007617217315782909;-0.10784981509459612;-6750.0;6749.892150184905
0.34800000000000025;-788875427.0;-772127415.0;-15.0;-4186.999173398621;-4187.000305262889;4.8600739319226705e-05;-0.08918411776903667;-5916.666666666667;5916.577482548898
0.35200000000000026;-805623426.0;-788875416.0;-11.0;-4186.999361778385;-4187.00025666215;2.7263528863841202e-05;-0.047094941010072944;-5166.666666666667;5166.619571725657
0.35600000000000026;-822371424.0;-805623416.0;-10.0;-4186.999410004263;-4187.000229398621;-9.237976428266848e-05;-0.012056469586241292;-4333.333333333333;4333.321276863747
0.36000000000000026;-839119422.0;-822371417.0;-7.0;-4186.9993838876835;-4187.000321778385;0.00023977412183739943;0.006529144911837648;-3583.3333333333335;3583.3398624782453
0.36400000000000027;-855867421.0;-839119417.0;-5.0;-4186.9993385772805;-4187.000082004263;0.0002181165800720919;0.011327600759614143;-2833.3333333333335;2833.344660934093
0.36800000000000027;-872615419.0;-855867416.0;-5.0;-4186.999303478239;-4186.999863887683;4.531040303845657e-05;0.008774760317464825;-2250.0;2250.0087747603175
0.3720000000000003;-889363417.0;-872615415.0;-4.0;-4186.999286283346;-4186.99981857728;0.0001310990410274826;0.004298723297324614;-1750.0;1750.0042987232973
0.3760000000000003;-906111415.0;-889363413.0;-4.0;-4186.999283049329;-4186.999687478239;1.7194893189298455e-05;0.0008085041827143868;-1250.0;1250.0008085041827
0.3800000000000003;-922859412.0;-906111411.0;-4.0;-4186.999286746614;-4186.999670283346;3.2340167308575474e-06;-0.0009243212844012305;-833.3333333333334;833.332409012049
0.3840000000000003;-939607410.0;-922859409.0;-3.0;-4186.999291866868;-4186.999667049329;9.230271462001838e-05;-0.001280063315789448;-416.6666666666667;416.6653866033509
0.3880000000000003;-956355408.0;-939607407.0;-3.0;-4186.999295661391;-4186.999574746615;-5.120253263157792e-06;-0.0009486309409112437;-250.0;249.9990513690591
0.3920000000000003;-973103406.0;-956355405.0;-3.0;-4186.999297554727;-4186.999579866868;-3.7945237636449747e-06;-0.0004733337846118957;-83.33333333333333;83.33285999954872
0.3960000000000003;-989851404.0;-973103403.0;-3.0;-4186.99929806253;-4186.999583661392;-1.8933351384475827e-06;-0.00012695090845227242;0.0;-0.00012695090845227242
0.4000000000000003;-1006599402.0;-989851401.0;-3.0;-4186.999297933161;-4186.999585554727;-5.078036338090897e-07;3.234231371607166e-05;83.33333333333333;-83.33330099101961
0.4040000000000003;-1023347400.0;-1006599399.0;-3.0;-4186.999297715881;-4186.99958606253;1.2936925486428663e-07;5.4320025810739025e-05;166.66666666666666;-166.66661234664085
0.4080000000000003;-1040095398.0;-1023347397.0;-3.0;-4186.999297665471;-4186.999585933161;2.172801032429561e-07;1.260241333511658e-05;83.33333333333333;-83.33332073092
0.4120000000000003;-1056843396.0;-1040095395.0;-3.0;-4186.999297820689;-4186.999585715881;5.040965334046632e-08;-3.8804500945843756e-05;83.33333333333333;-83.33337213783427
0.4160000000000003;-1073591394.0;-1056843393.0;-3.0;-4186.999298118155;-4186.999585665471;-1.5521800378337502e-07;-7.436642590619158e-05;0.0;-7.436642590619158e-05
0.4200000000000003;-1090339392.0;-1073591391.0;-3.0;-4186.999298479314;-4186.999585820689;-2.974657036247663e-07;-9.028985914483201e-05;0.0;-9.028985914483201e-05
0.4240000000000003;-1107087390.0;-1090339389.0;-3.0;-4186.999298850117;-4186.999586118155;-3.6115943657932803e-07;-9.27007022255566e-05;0.0;-9.27007022255566e-05
0.4280000000000003;-1123835388.0;-1107087387.0;-3.0;-4186.999299206975;-4186.9995864793145;-3.708028089022264e-07;-8.921438165998552e-05;0.0;-8.921438165998552e-05
0.43200000000000033;-1140583386.0;-1123835385.0;-3.0;-4186.999299548316;-4186.999586850117;-3.568575266399421e-07;-8.533538675692398e-05;0.0;-8.533538675692398e-05
0.43600000000000033;-1157331384.0;-1140583383.0;-3.0;-4186.99929988121;-4186.999587206975;-3.413415470276959e-07;-8.322354005940724e-05;0.0;-8.322354005940724e-05
0.44000000000000034;-1174079382.0;-1157331381.0;-3.0;-4186.999300214009;-4186.999587548316;-3.3289416023762897e-07;-8.31996658234857e-05;0.0;-8.31996658234857e-05
0.44400000000000034;-1190827380.0;-1174079379.0;-3.0;-4186.999300551896;-4186.999587881211;-3.327986632939428e-07;-8.447182153759059e-05;0.0;-8.447182153759059e-05
0.44800000000000034;-1207575378.0;-1190827377.0;-3.0;-4186.999300897446;-4186.999588214009;-3.3788728615036234e-07;-8.638744475319982e-05;0.0;-8.638744475319982e-05
0.45200000000000035;-1224323376.0;-1207575375.0;-3.0;-4186.999301249719;-4186.9995885518965;-3.4554977901279926e-07;-8.806819096207619e-05;0.0;-8.806819096207619e-05
0.45600000000000035;-1241071374.0;-1224323373.0;-3.0;-4186.999301608397;-4186.999588897446;-3.5227276384830475e-07;-8.966958375822287e-05;0.0;-8.966958375822287e-05
0.46000000000000035;-1257819372.0;-1241071371.0;-3.0;-4186.999301972855;-4186.999589249719;-3.586783350328915e-07;-9.111454346566461e-05;0.0;-9.111454346566461e-05
0.46400000000000036;-1274567370.0;-1257819369.0;-3.0;-4186.999302342213;-4186.999589608397;-3.6445817386265844e-07;-9.23394054552773e-05;83.33333333333333;-83.33342567273878
0.46800000000000036;-1291315368.0;-1274567367.0;-3.0;-4186.99930271647;-4186.999589972856;-3.693576218211092e-07;-9.356426744488999e-05;83.33333333333333;-83.33342689760077
0.47200000000000036;-1308063366.0;-1291315365.0;-3.0;-4186.9993030956275;-4186.999590342213;-3.7425706977955997e-07;-9.478935680817813e-05;83.33333333333333;-83.33342812269014
0.47600000000000037;-1324811364.0;-1308063363.0;-3.0;-4186.999303479873;-4186.99959071647;-3.791574272327125e-07;-9.606128514860757e-05;0.0;-9.606128514860757e-05
0.48000000000000037;-1341559362.0;-1324811361.0;-3.0;-4186.999303868766;-4186.999591095628;-3.8424514059443027e-07;-9.722339200379793e-05;0.0;-9.722339200379793e-05
0.4840000000000004;-1358307360.0;-1341559359.0;-3.0;-4186.999304262811;-4186.999591479873;-3.888935680151917e-07;-9.851123650150839e-05;0.0;-9.851123650150839e-05
0.4880000000000004;-1375055358.0;-1358307357.0;-3.0;-4186.999304662006;-4186.999591868766;-3.9404494600603357e-07;-9.979862625186797e-05;0.0;-9.979862625186797e-05
0.4920000000000004;-1391803356.0;-1375055355.0;-3.0;-4186.99930506629;-4186.999592262811;-3.991945050074719e-07;-0.0001010710093396483;0.0;-0.0001010710093396483
0.4960000000000004;-1408551354.0;-1391803353.0;-3.0;-4186.999305475599;-4186.999592662006;-4.042840373585932e-07;-0.00010232724889647216;0.0;-0.00010232724889647216
0.5000000000000003;-1425299352.0;-1408551351.0;-3.0;-4186.999305889995;-4186.99959306629;-4.093089955858886e-07;-0.0001035991772369016;0.0;-0.0001035991772369016
0.5040000000000003;-1442047350.0;-1425299349.0;-3.0;-4186.999306309229;-4186.999593475599;-4.143967089476064e-07;-0.0001048083504429087;0.0;-0.0001048083504429087
0.5080000000000003;-1458795348.0;-1442047347.0;-3.0;-4186.999306733991;-4186.999593889996;-4.192334017716348e-07;-0.00010619055501592811;0.0;-0.00010619055501592811
