Zeit[sec];Sollposition[°];Istposition[°];Positionsschleppfehler[°];Sollgeschwindigkeit[°/s];Istgeschwindigkeit[°/s];Geschwindigkeitsdifferenz[°/s];Sollbeschleunigung[°/s*s];Istbeschleunigung[°/s*s];Beschleunigungsdifferenz[°/s*s]
0.0;0.0;5.0;-5.0;-0.0;-0.00021499999999999997;0.0;0.0;0.0;0.0
0.004;0.0;5.0;-5.0;-0.0;-0.00021499999999999997;0.0;0.0;0.0;0.0
0.008;0.0;5.0;-5.0;-0.0;-0.00021499999999999997;0.0;0.0;0.0;0.0
0.012;0.0;5.0;-5.0;-0.0;-0.00021499999999999997;0.0;0.0;0.0;0.0
0.016;0.0;5.0;-5.0;-0.0;-0.00021499999999999997;0.0;0.0;0.0;0.0
0.02;0.0;5.0;-5.0;-0.0;-0.00021499999999999997;0.0;0.0;0.0;0.0
0.024;0.0;5.0;-5.0;-0.0;-0.00021499999999999997;0.0;0.0;0.0;0.0
0.028;0.0;5.0;-5.0;-0.0;-0.00021499999999999997;0.0;0.0;0.0;0.0
0.032;0.0;5.0;-5.0;-0.0;-0.00021499999999999997;0.0;0.0;0.0;0.0
0.036000000000000004;0.0;5.0;-5.0;-0.0;-0.00021499999999999997;0.0;0.0;0.0;0.0
0.04000000000000001;0.0;5.0;-5.0;-0.0;-0.00021499999999999997;0.0;0.0;0.0;0.0
0.04400000000000001;0.0;5.0;-5.0;-0.0;-0.00021499999999999997;0.0;0.0;0.0;0.0
0.048000000000000015;0.0;5.0;-5.0;-0.0;-0.00021499999999999997;0.0;0.0;0.0;0.0
0.05200000000000002;0.0;5.0;-5.0;-0.0;-0.00021499999999999997;0.0;0.0;0.0;0.0
0.05600000000000002;-360.0;5.0;-5.0;-0.09018593751658477;-0.00021499999999999997;0.0;-22.546484379146193;0.0;-22.546484379146193
0.060000000000000026;-3955.0;5.0;-365.0;-0.8987635512776847;-0.00021499999999999997;-0.10566593751658476;-202.14440344027497;0.0;-202.14440344027497
0.06400000000000003;-21626.0;-418.0;-3537.0;-4.417605104577703;-0.10588093751658477;-0.9449736137610998;-879.7103883250046;0.0;-879.7103883250046
0.06800000000000003;-80032.0;-4621.0;-17005.0;-14.601691154637702;-1.0508545512776846;-4.097965553300018;-2546.021512515;0.0;-2546.021512515
0.07200000000000004;-228201.0;-25216.0;-54816.0;-37.0420631038719;-5.148820104577703;-11.809959050060002;-5610.092987308549;0.0;-5610.092987308549
0.07600000000000004;-538093.0;-93051.0;-135150.0;-77.47295523650804;-16.958779154637703;-25.894733949234194;-10107.723033159036;0.0;-10107.723033159036
0.08000000000000004;-1097807.0;-264465.0;-273628.0;-139.9284924225269;-42.8535131038719;-46.38544613263614;-15613.884296504712;-166.66666666666666;-15447.217629838044
0.08400000000000005;-2002792.0;-621420.0;-476387.0;-226.24637654849622;-89.23895923650804;-71.17417418601883;-21579.471031492332;-333.3333333333333;-21246.137698159
0.08800000000000005;-3351392.0;-1263072.0;-739720.0;-337.1499659294035;-160.41313342252687;-97.64120312596935;-27725.89734522682;-750.0;-26975.89734522682
0.09200000000000005;-5243715.0;-2295289.0;-1056103.0;-473.0807683248886;-258.0543365484962;-124.50805838090724;-33982.70059887128;-1250.0;-32732.700598871277
0.09600000000000006;-7778491.0;-3825538.0;-1418177.0;-633.6938675142802;-382.56239492940347;-151.49998439548517;-40153.274797347905;-2083.3333333333335;-38069.94146401457
0.10000000000000006;-11046754.0;-5961787.0;-1816704.0;-817.0658288780569;-534.0623793248886;-177.74976018939162;-45842.99034094417;-3083.3333333333335;-42759.65700761083
0.10400000000000006;-15126016.0;-8809035.0;-2237719.0;-1019.8154384237787;-711.8121395142803;-201.4756063637766;-50687.40238643045;-4250.0;-46437.40238643045
0.10800000000000007;-20076720.0;-12462185.0;-2663831.0;-1237.6759063065417;-913.2877458780569;-221.07242554572179;-54465.11697069076;-5666.666666666667;-48798.45030402409
0.11200000000000007;-25940275.0;-16999625.0;-3077095.0;-1465.8885986316347;-1134.3601714237786;-235.63081988276303;-57053.17308127326;-7166.666666666667;-49886.50641460659
0.11600000000000008;-32739641.0;-22479588.0;-3460687.0;-1699.8413557379024;-1369.9909913065417;-244.70714832509316;-58488.18927656691;-8916.666666666666;-49571.52260990025
0.12000000000000008;-40483429.0;-28938380.0;-3801261.0;-1935.94711489463;-1614.6981396316348;-248.59743910626753;-59026.439789181895;-10750.0;-48276.439789181895
0.12400000000000008;-49171774.0;-36391562.0;-4091867.0;-2172.086106320392;-1863.2955787379024;-248.60181715672752;-59034.7478564405;-12666.666666666666;-46368.08118977384
0.12800000000000009;-58801406.0;-44839151.0;-4332623.0;-2407.4078538800995;-2111.89739589463;-246.49149942576196;-58830.43688992689;-14583.333333333334;-44247.10355659355
0.1320000000000001;-69368542.0;-54272706.0;-4528700.0;-2641.7837843057055;-2358.388895320392;-243.75305855970782;-58593.982606401485;-16500.0;-42093.982606401485
0.1360000000000001;-80869648.0;-64681273.0;-4687269.0;-2875.2763301066093;-2602.1419538800997;-241.19439742560598;-58373.13645022595;-18416.666666666668;-39956.46978355929
0.1400000000000001;-93300095.0;-76054618.0;-4815030.0;-3107.611629054158;-2843.3363513057056;-238.98626880090342;-58083.82473688721;-20333.333333333332;-37750.491403553875
0.1440000000000001;-106649166.0;-88383908.0;-4916187.0;-3337.267793134564;-3082.322620106609;-236.68504994754903;-57414.041020101424;-22166.666666666668;-35247.37435343475
0.1480000000000001;-120892055.0;-101659938.0;-4989228.0;-3560.721904557819;-3319.007670054158;-232.79692708040557;-55863.5278558138;-24083.333333333332;-31780.194522480466
0.1520000000000001;-135983946.0;-115867156.0;-5024899.0;-3772.972607916114;-3551.8045971345637;-224.9879644232551;-53062.675839573785;-25916.666666666668;-27146.009172907117
0.1560000000000001;-151859467.0;-130974326.0;-5009620.0;-3968.8800630063856;-3776.7925615578188;-211.59370635829555;-48976.86377256787;-27750.0;-21226.863772567867
0.16000000000000011;-168435881.0;-146927871.0;-4931596.0;-4144.103271370437;-3988.3862679161143;-192.55242309027153;-43805.802091012876;-29416.666666666668;-14389.135424346212
0.16400000000000012;-185617907.0;-163651625.0;-4784256.0;-4295.50638181996;-4180.938691006386;-168.88758836405123;-37850.777612380625;-31083.333333333332;-6767.444279047293
0.16800000000000012;-203303149.0;-181050930.0;-4566977.0;-4421.310157948974;-4349.826279370437;-142.06011344952276;-31450.944032253574;-32583.333333333332;1132.3893010797583
0.17200000000000013;-221386934.0;-199018475.0;-4284674.0;-4520.946020966621;-4491.88639281996;-113.66474712901436;-24908.965754411838;-33916.666666666664;9007.700912254826
0.17600000000000013;-239766478.0;-217440679.0;-3946255.0;-4594.8859118755045;-4605.551139948974;-85.08384601764737;-18484.972727220793;-35000.0;16515.027272779207
0.18000000000000013;-258346658.0;-236203218.0;-3563260.0;-4645.04486544032;-4690.634985966622;-57.471105908883146;-12539.738391203855;-35916.666666666664;23376.928275462808
0.18400000000000014;-277047731.0;-255195642.0;-3151016.0;-4675.267906614058;-4748.106091875505;-32.43246156481473;-7555.76029343456;-36583.333333333336;29027.573039898776
0.18800000000000014;-295810656.0;-274317796.0;-2729935.0;-4690.73096975971;-4780.538553440319;-12.116558173738667;-3865.7657864130215;-37083.333333333336;33217.56754692031
0.19200000000000014;-314597163.0;-293488416.0;-2322240.0;-4696.626662304954;-4792.655111614058;2.06782185434804;-1473.9231363109866;-37250.0;35776.07686368901
0.19600000000000015;-333386296.0;-312650765.0;-1946398.0;-4697.282951869699;-4790.58728975971;10.265513454755819;-164.07239118620964;-37416.666666666664;37252.59427548046
0.20000000000000015;-352169581.0;-331772052.0;-1614244.0;-4695.821095335633;-4780.321776304954;13.62633243525488;365.4641335165252;-37333.333333333336;37698.797466849865
0.20400000000000015;-370945944.0;-350838833.0;-1330748.0;-4694.090366940235;-4766.695443869699;13.652184534066691;432.68209884945463;-37333.333333333336;37766.01543218279
0.20800000000000016;-389717455.0;-369851006.0;-1094938.0;-4692.877641492716;-4753.043259335633;11.870558395397893;303.1813618797514;-37083.333333333336;37386.51469521309
0.21200000000000016;-408486637.0;-388815696.0;-901759.0;-4692.295201229537;-4741.172700940235;9.519422447518991;145.61006579469904;-36750.0;36895.610065794695
0.21600000000000016;-427255262.0;-407742309.0;-744328.0;-4692.155994749564;-4731.653278492716;7.351973263178479;34.801619993231725;-36250.0;36284.80161999323
0.22000000000000017;-446024166.0;-426639514.0;-615748.0;-4692.22591901644;-4724.301305229537;5.668146479973075;-17.48106671880123;-35666.666666666664;35649.185599947865
0.22400000000000017;-464793525.0;-445514046.0;-510120.0;-4692.339514558968;-4718.633158749564;4.472079733124701;-28.398885632213933;-34833.333333333336;34804.93444770112
0.22800000000000017;-483563204.0;-464370690.0;-422835.0;-4692.419617771751;-4714.1610790164395;3.6396594574707706;-20.025803195721892;-33833.333333333336;33813.307530137616
0.23200000000000018;-502333013.0;-483212775.0;-350429.0;-4692.451835400777;-4710.521419558969;3.0333547872178315;-8.05440725639528;-32583.333333333332;32575.278926076935
0.23600000000000018;-521102817.0;-502042727.0;-290286.0;-4692.450855525673;-4707.488064771751;2.553931370974169;0.2449687758598884;-31166.666666666668;31166.911635442528
0.24000000000000019;-539872563.0;-520862463.0;-240354.0;-4692.4363497313025;-4704.934133400777;2.148055875103637;3.6264485927404166;-29583.333333333332;29586.959781926074
0.2440000000000002;-558642252.0;-539673607.0;-198956.0;-4692.421838506568;-4702.786077525673;1.7946197943711013;3.627806183658322;-27833.333333333332;27836.961139516992
0.2480000000000002;-577411904.0;-558477572.0;-164680.0;-4692.4128871811645;-4700.991457731302;1.4883792247337624;2.2378313508397696;-26083.333333333332;26085.571164684174
0.25200000000000017;-596181543.0;-577275584.0;-136320.0;-4692.409613829788;-4699.503078506568;1.2284313254040171;0.8183378440662636;-24083.333333333332;24084.1516711774
0.25600000000000017;-614951184.0;-596068682.0;-112861.0;-4692.409874634389;-4698.274647181164;1.0120103513763752;-0.06520115016428463;-22166.666666666668;22166.601465516505
0.2600000000000002;-633720830.0;-614857732.0;-93452.0;-4692.411443463174;-4697.262636829788;0.8343261953987167;-0.39220719622790057;-20166.666666666668;20166.27445947044
0.2640000000000002;-652490483.0;-633643445.0;-77385.0;-4692.412924087642;-4696.428310634389;0.6893121712155335;-0.3701561170146306;-18333.333333333332;18332.96317721632
0.2680000000000002;-671260139.0;-652426400.0;-64083.0;-4692.4137941689105;-4695.738998463174;0.5705053755318659;-0.21752031716459896;-16333.333333333334;16333.11581301617
0.2720000000000002;-690029796.0;-671207073.0;-53066.0;-4692.414083162212;-4695.168493087642;0.472860918731385;-0.07224832529573177;-14500.0;14499.927751674704
0.2760000000000002;-708799453.0;-689985855.0;-43941.0;-4692.414028992824;-4694.69563216891;0.3920860066982641;0.013542347005568445;-12583.333333333334;12583.34687568034
0.2800000000000002;-727569110.0;-708763069.0;-36384.0;-4692.413859948828;-4694.303546162212;0.3250051693885325;0.042260998952770024;-10750.0;10750.042260998953
0.2840000000000002;-746338765.0;-727538983.0;-30127.0;-4692.413711516592;-4693.978540992824;0.26922004399602883;0.03710805890477786;-8916.666666666666;8916.70377472557
0.2880000000000002;-765108421.0;-746313820.0;-24945.0;-4692.413629435913;-4693.709320948828;0.2229744322348779;0.020520169755400275;-7166.666666666667;7166.687186836422
0.2920000000000002;-783878076.0;-765087765.0;-20656.0;-4692.413605917515;-4693.486346516593;0.18450908067916316;0.005879599484615028;-5583.333333333333;5583.339212932818
0.2960000000000002;-802647731.0;-783860972.0;-17104.0;-4692.413614940762;-4693.3018374359135;0.15275951839794288;-0.0022558117507287534;-4083.3333333333335;4083.3310775215828
0.3000000000000002;-821417387.0;-802633568.0;-14163.0;-4692.413633411172;-4693.149077917516;0.12645397675350978;-0.004617602371581597;-2750.0;2749.9953823976284
0.3040000000000002;-840187042.0;-821405658.0;-11729.0;-4692.413648433032;-4693.022623940762;0.10464352959024836;-0.0037554650589299854;-1666.6666666666667;1666.6629112016078
0.3080000000000002;-858956698.0;-840177329.0;-9713.0;-4692.413656214251;-4692.917980411172;0.08667297814008634;-0.001945304802575265;-750.0;749.9980546951974
0.3120000000000002;-877726353.0;-858948654.0;-8044.0;-4692.413658072224;-4692.831307433032;0.07175921878024383;-0.0004644932687369874;-83.33333333333333;83.33286884006459
0.3160000000000002;-896496009.0;-877719692.0;-6661.0;-4692.413656844996;-4692.7595482142515;0.059467142027642694;0.00030680712370667607;333.3333333333333;-333.3330265262096
0.32000000000000023;-915265664.0;-896490492.0;-5517.0;-4692.413654868311;-4692.700081072224;0.049193227227988245;0.0004941712177242152;666.6666666666666;-666.6661724954489
0.32400000000000023;-934035320.0;-915261095.0;-4569.0;-4692.413653365323;-4692.650887844996;0.04076597668517934;0.00037574704947473947;750.0;-749.9996242529505
0.32800000000000024;-952804975.0;-934031535.0;-3785.0;-4692.413652637848;-4692.610121868311;0.03371350298766629;0.0001818686996557517;750.0;-749.9998181313003
0.33200000000000024;-971574631.0;-952801840.0;-3135.0;-4692.413652503403;-4692.576408365323;0.027950727475399617;3.3611286198720336e-05;666.6666666666666;-666.6666330553804
0.33600000000000024;-990344286.0;-971572033.0;-2598.0;-4692.413652657622;-4692.548457637848;0.023091134445166972;-3.855484465020709e-05;583.3333333333334;-583.333371888178
0.34000000000000025;-1009113942.0;-990342134.0;-2152.0;-4692.4136528666595;-4692.525366503402;0.01917784578017745;-5.225933819019701e-05;500.0;-500.0000522593382
0.34400000000000025;-1027883597.0;-1009112158.0;-1784.0;-4692.413653015625;-4692.506188657622;0.015823790962713247;-3.7241306927171536e-05;333.3333333333333;-333.33337057464024
0.34800000000000025;-1046653253.0;-1027882119.0;-1478.0;-4692.413653082691;-4692.49036486666;0.013157851034520718;-1.6766534827183932e-05;250.0;-250.00001676653483
0.35200000000000026;-1065422908.0;-1046652027.0;-1226.0;-4692.413653090836;-4692.477207015625;0.01083593293424201;-2.0363586372695863e-06;250.0;-250.00000203635864
0.35600000000000026;-1084192564.0;-1065421892.0;-1016.0;-4692.413653072368;-4692.466371082691;0.009029991854731634;4.61704985355027e-06;250.0;-249.99999538295015
0.36000000000000026;-1102962219.0;-1084191721.0;-843.0;-4692.413653050479;-4692.457341090836;0.007439018468176073;5.472202246892266e-06;166.66666666666666;-166.6666611944644
0.36400000000000027;-1121731875.0;-1102961520.0;-699.0;-4692.413653035773;-4692.449902072368;0.0061920218886371;3.6766323319170624e-06;166.66666666666666;-166.66666299003433
0.36800000000000027;-1140501530.0;-1121731294.0;-581.0;-4692.413653029646;-4692.443710050479;0.005074014706224261;1.5315890777856112e-06;83.33333333333333;-83.33333180174425
0.3720000000000003;-1159271186.0;-1140501048.0;-482.0;-4692.413653029646;-4692.438636035773;0.004257006126863416;0.0;166.66666666666666;-166.66666666666666
0.3760000000000003;-1178040841.0;-1159270785.0;-401.0;-4692.4136530315745;-4692.434379029646;0.0034829999995054095;-4.82032191939652e-07;83.33333333333333;-83.33333381536552
0.3800000000000003;-1196810497.0;-1178040508.0;-333.0;-4692.413653033814;-4692.430896029647;0.002923998072219547;-5.597939889412373e-07;83.33333333333333;-83.33333389312732
0.3840000000000003;-1215580152.0;-1196810219.0;-278.0;-4692.413653035243;-4692.427972031574;0.0023649977611057693;-3.574314177967608e-07;0.0;-3.574314177967608e-07
0.3880000000000003;-1234349808.0;-1215579921.0;-231.0;-4692.4136530358655;-4692.425607033813;0.002020998569605581;-1.5552359400317073e-07;0.0;-1.5552359400317073e-07
0.3920000000000003;-1253119463.0;-1234349615.0;-193.0;-4692.413653035804;-4692.423586035244;0.0016339993781002704;1.546140993013978e-08;0.0;1.546140993013978e-08
0.3960000000000003;-1271889119.0;-1253119302.0;-161.0;-4692.413653035616;-4692.421952035866;0.0013760000620095525;4.6838977141305804e-08;83.33333333333333;-83.33333328649435
0.4000000000000003;-1290658774.0;-1271888984.0;-135.0;-4692.413653035306;-4692.420576035804;0.0011180001874890877;7.753442332614213e-08;83.33333333333333;-83.3333332557989
0.4040000000000003;-1309428430.0;-1290658661.0;-113.0;-4692.413653035119;-4692.419458035616;0.0009460003102503833;4.6838977141305804e-08;83.33333333333333;-83.33333328649435
0.4080000000000003;-1328198085.0;-1309428335.0;-95.0;-4692.413653035119;-4692.418512035306;0.0007740001874481095;0.0;0.0;0.0
0.4120000000000003;-1346967741.0;-1328198005.0;-80.0;-4692.413653035243;-4692.417738035118;0.0006449999991673394;-3.115019353572279e-08;0.0;-3.115019353572279e-08
0.4160000000000003;-1365737396.0;-1346967673.0;-68.0;-4692.413653035182;-4692.417093035119;0.0005159998754606931;1.546140993013978e-08;0.0;1.546140993013978e-08
0.4200000000000003;-1384507052.0;-1365737339.0;-57.0;-4692.413653035182;-4692.416577035244;0.00047300006190198474;0.0;0.0;0.0
0.4240000000000003;-1403276708.0;-1384507003.0;-49.0;-4692.413653035243;-4692.416104035182;0.0003440000000409782;-1.546140993013978e-08;0.0;-1.546140993013978e-08
0.4280000000000003;-1422046363.0;-1403276666.0;-42.0;-4692.413653035306;-4692.415760035182;0.0003009999381902162;-1.5688783605583012e-08;0.0;-1.5688783605583012e-08
0.43200000000000033;-1440816019.0;-1422046327.0;-36.0;-4692.413653035243;-4692.415459035244;0.0002579999372755992;1.5688783605583012e-08;0.0;1.5688783605583012e-08
0.43600000000000033;-1459585674.0;-1440815987.0;-32.0;-4692.413653035119;-4692.415201035306;0.00017200006277562352;3.115019353572279e-08;0.0;3.115019353572279e-08
0.44000000000000034;-1478355330.0;-1459585647.0;-27.0;-4692.413653035243;-4692.415029035244;0.00021500012462638551;-3.115019353572279e-08;0.0;-3.115019353572279e-08
0.44400000000000034;-1497124985.0;-1478355306.0;-24.0;-4692.413653035119;-4692.414814035119;0.00012899987541459268;3.115019353572279e-08;0.0;3.115019353572279e-08
0.44800000000000034;-1515894641.0;-1497124964.0;-21.0;-4692.413653035182;-4692.414685035244;0.00012900012461614097;-1.5688783605583012e-08;0.0;-1.5688783605583012e-08
0.45200000000000035;-1534664296.0;-1515894622.0;-19.0;-4692.413653035057;-4692.414556035119;8.599993725511013e-05;3.115019353572279e-08;0.0;3.115019353572279e-08
0.45600000000000035;-1553433952.0;-1534664279.0;-17.0;-4692.413653035306;-4692.414470035182;8.600012461101869e-05;-6.230038707144558e-08;0.0;-6.230038707144558e-08
0.46000000000000035;-1572203607.0;-1553433936.0;-16.0;-4692.413653035243;-4692.414384035057;4.299975080357399e-05;1.5688783605583012e-08;0.0;1.5688783605583012e-08
0.46400000000000036;-1590973263.0;-1572203593.0;-14.0;-4692.413653035182;-4692.414341035306;8.600006276537897e-05;1.546140993013978e-08;0.0;1.546140993013978e-08
0.46800000000000036;-1609742918.0;-1590973250.0;-13.0;-4692.413653035182;-4692.4142550352435;4.3000061850761995e-05;0.0;0.0;0.0
0.47200000000000036;-1628512574.0;-1609742906.0;-12.0;-4692.413653035182;-4692.414212035182;4.3000000005122274e-05;0.0;0.0;0.0
0.47600000000000037;-1647282229.0;-1628512562.0;-12.0;-4692.413653035119;-4692.414169035182;0.0;1.5688783605583012e-08;0.0;1.5688783605583012e-08
0.48000000000000037;-1666051885.0;-1647282218.0;-11.0;-4692.413653035243;-4692.414169035182;4.3000062760256696e-05;-3.115019353572279e-08;0.0;-3.115019353572279e-08
0.4840000000000004;-1684821540.0;-1666051874.0;-11.0;-4692.413653035243;-4692.414126035119;-1.2460077414289117e-10;0.0;0.0;0.0
0.4880000000000004;-1703591196.0;-1684821530.0;-10.0;-4692.413653035119;-4692.4141260352435;4.3000000005122274e-05;3.115019353572279e-08;0.0;3.115019353572279e-08
0.4920000000000004;-1722360851.0;-1703591186.0;-10.0;-4692.413653035182;-4692.4140830352435;1.2460077414289117e-10;-1.5688783605583012e-08;0.0;-1.5688783605583012e-08
0.4960000000000004;-1741130507.0;-1722360842.0;-9.0;-4692.413653035119;-4692.414083035119;4.299993724998785e-05;1.5688783605583012e-08;0.0;1.5688783605583012e-08
0.5000000000000003;-1759900162.0;-1741130498.0;-9.0;-4692.413653035243;-4692.414040035182;6.275513442233205e-11;-3.115019353572279e-08;0.0;-3.115019353572279e-08
0.5040000000000003;-1778669818.0;-1759900154.0;-8.0;-4692.413653035119;-4692.414040035119;4.299987540434813e-05;3.115019353572279e-08;0.0;3.115019353572279e-08
0.5080000000000003;-1797439473.0;-1778669809.0;-9.0;-4692.413653035243;-4692.4139970352435;-4.299987540434813e-05;-3.115019353572279e-08;0.0;-3.115019353572279e-08
