Zeit[sec];Sollposition[°];Istposition[°];Positionsschleppfehler[°];Sollgeschwindigkeit[°/s];Istgeschwindigkeit[°/s];Geschwindigkeitsdifferenz[°/s];Sollbeschleunigung[°/s*s];Istbeschleunigung[°/s*s];Beschleunigungsdifferenz[°/s*s]
0.0;0.0;2.0;-2.0;-0.0;-0.000192;0.0;0.0;0.0;0.0
0.004;0.0;2.0;-2.0;-0.0;-0.000192;0.0;0.0;0.0;0.0
0.008;0.0;2.0;-2.0;-0.0;-0.000192;0.0;0.0;0.0;0.0
0.012;0.0;2.0;-2.0;-0.0;-0.000192;0.0;0.0;0.0;0.0
0.016;0.0;2.0;-2.0;-0.0;-0.000192;0.0;0.0;0.0;0.0
0.02;0.0;2.0;-2.0;-0.0;-0.000192;0.0;0.0;0.0;0.0
0.024;0.0;2.0;-2.0;-0.0;-0.000192;0.0;0.0;0.0;0.0
0.028;0.0;2.0;-2.0;-0.0;-0.000192;0.0;0.0;0.0;0.0
0.032;0.0;2.0;-2.0;-0.0;-0.000192;0.0;0.0;0.0;0.0
0.036000000000000004;0.0;2.0;-2.0;-0.0;-0.000192;0.0;0.0;0.0;0.0
0.04000000000000001;0.0;2.0;-2.0;-0.0;-0.000192;0.0;0.0;0.0;0.0
0.04400000000000001;0.0;2.0;-2.0;-0.0;-0.000192;0.0;0.0;0.0;0.0
0.048000000000000015;0.0;2.0;-2.0;-0.0;-0.000192;0.0;0.0;0.0;0.0
0.05200000000000002;0.0;2.0;-2.0;-0.0;-0.000192;0.0;0.0;0.0;0.0
0.05600000000000002;0.0;2.0;-2.0;-0.0;-0.000192;0.0;0.0;0.0;0.0
0.060000000000000026;-173.0;2.0;-2.0;-0.04329344114734678;-0.000192;0.0;-10.823360286836696;0.0;-10.823360286836696
0.06400000000000003;-1898.0;2.0;-175.0;-0.43144827213738673;-0.000192;-0.05990144114734679;-97.03870774750999;0.0;-97.03870774750999
0.06800000000000003;-10381.0;-238.0;-1660.0;-2.1206557460478024;-0.060093441147346785;-0.5307148309900399;-422.30186847760393;0.0;-422.30186847760393
0.07200000000000004;-145505.0;-2601.0;-7780.0;-33.78091858939887;-0.5908082721373867;-2.2767274739104155;-7915.065710837767;0.0;-7915.065710837767
0.07600000000000004;-347387.0;-14071.0;-131434.0;-50.47047214435855;-2.8675357460478024;-43.53104684335107;-4172.38838873992;0.0;-4172.38838873992
0.08000000000000004;-692371.0;-199665.0;-147722.0;-86.24619900121131;-46.39858258939887;-18.253201554959688;-8943.93171421319;-83.33333333333333;-8860.598380879856
0.08400000000000005;-1193482.0;-458272.0;-234099.0;-125.2776963254684;-64.65178414435856;-44.06791885685276;-9757.874331064271;-250.0;-9507.874331064271
0.08800000000000005;-1837842.0;-893150.0;-300332.0;-161.0898441258148;-108.71970300121131;-45.38986532425707;-8953.036950086602;-500.0;-8453.036950086602
0.09200000000000005;-2657780.0;-1509588.0;-328254.0;-204.98450423618544;-154.1095683254684;-38.492659800346416;-10973.665027592659;-833.3333333333334;-10140.331694259326
0.09600000000000006;-3705801.0;-2279996.0;-377784.0;-262.0053619699876;-192.6022281258148;-48.64954011037065;-14255.214433450532;-1166.6666666666667;-13088.547766783866
0.10000000000000006;-5039691.0;-3245003.0;-460798.0;-333.4722986776431;-241.25176823618546;-64.99020173380211;-17866.73417691388;-1583.3333333333333;-16283.400843580546
0.10400000000000006;-6707326.0;-4469970.0;-569721.0;-416.9087493318747;-306.24196996998757;-81.92354470765554;-20859.112663557895;-1916.6666666666667;-18942.445996891227
0.10800000000000007;-8745923.0;-6022632.0;-684694.0;-509.6492375889969;-388.1655146776431;-94.4738586542316;-23185.122064280564;-2500.0;-20685.122064280564
0.11200000000000007;-11182741.0;-7953189.0;-792734.0;-609.2046726735482;-482.6393733318747;-103.11232825712216;-24888.85877113782;-3083.3333333333335;-21805.525437804485
0.11600000000000008;-14036527.0;-10296195.0;-886546.0;-713.4463118057006;-585.7517015889969;-108.56138708455137;-26060.409783038096;-3833.3333333333335;-22227.076449704764
0.12000000000000008;-17320851.0;-13073447.0;-963080.0;-821.080977916643;-694.3130886735482;-111.58890313215238;-26908.66652773559;-4583.333333333333;-22325.333194402258
0.12400000000000008;-21045668.0;-16297054.0;-1023797.0;-931.2043507118143;-805.9019918057006;-113.46349811094228;-27530.843198792838;-5416.666666666667;-22114.17653212617
0.12800000000000009;-25217352.0;-19974515.0;-1071153.0;-1042.9209126643423;-919.3654899166429;-114.6695487951713;-27929.14048813199;-6333.333333333333;-21595.80715479866
0.1320000000000001;-29839055.0;-24110655.0;-1106697.0;-1155.4256017574353;-1034.0350387118142;-115.128785952528;-28126.172273273256;-7166.666666666667;-20959.505606606588
0.1360000000000001;-34911648.0;-28707310.0;-1131745.0;-1268.1482884467478;-1149.1638246643422;-114.90929709309307;-28180.671672328117;-8083.333333333333;-20097.338338994785
0.1400000000000001;-40434810.0;-33763602.0;-1148046.0;-1380.7902393292036;-1264.0731217574353;-114.28758268931256;-28160.487720613957;-8916.666666666666;-19243.821053947293
0.1440000000000001;-46407861.0;-39277044.0;-1157766.0;-1493.262796528622;-1378.3607044467478;-113.57507088245575;-28118.13929985459;-9833.333333333334;-18284.805966521257
0.1480000000000001;-52830231.0;-45244787.0;-1163074.0;-1605.5924068417742;-1491.9357753292036;-112.9821251994183;-28082.402578288053;-10750.0;-17332.402578288053
0.1520000000000001;-59701597.0;-51664458.0;-1165773.0;-1717.8415250028145;-1604.9179005286219;-112.5887143131522;-28062.27954026008;-11666.666666666666;-16395.61287359341
0.1560000000000001;-67021853.0;-58534484.0;-1167113.0;-1830.063797066368;-1717.506614841774;-112.37775816104045;-28055.568015888355;-12583.333333333334;-15472.234682555021
0.16000000000000011;-74791011.0;-65854021.0;-1167832.0;-1942.2894831454187;-1829.8843730028145;-112.29129606355332;-28056.421519762695;-13416.666666666666;-14639.754853096027
0.16400000000000012;-83009125.0;-73622723.0;-1168288.0;-2054.5284449358255;-1942.1756690663678;-112.26946207905075;-28059.74044760171;-14333.333333333334;-13726.407114268379
0.16800000000000012;-91676242.0;-81840503.0;-1168622.0;-2166.7790163061604;-2054.4451311454186;-112.27102579040684;-28062.64284258373;-15166.666666666666;-12895.976175917061
0.17200000000000013;-100792386.0;-90507367.0;-1168875.0;-2279.035845093189;-2166.7161569358254;-112.27485937033498;-28064.20719675714;-16083.333333333334;-11980.873863423803
0.17600000000000013;-110357563.0;-99623331.0;-1169055.0;-2391.294338356034;-2278.9910163061604;-112.27410878702858;-28064.623315711287;-16916.666666666668;-11147.95664904462
0.18000000000000013;-120371772.0;-109188391.0;-1169172.0;-2503.552069767454;-2391.265125093189;-112.26972526284499;-28064.43285285502;-17833.333333333332;-10231.09951952169
0.18400000000000014;-130835007.0;-119202530.0;-1169242.0;-2615.8084585842453;-2503.534850356034;-112.2644514114204;-28064.097204197766;-18666.666666666668;-9397.430537531098
0.18800000000000014;-141747263.0;-129665727.0;-1169280.0;-2728.063903427137;-2615.7993017674544;-112.26003681679094;-28063.861210722964;-19583.333333333332;-8480.52787738963
0.19200000000000014;-153108539.0;-140577964.0;-1169299.0;-2840.31904681485;-2728.0593385842453;-112.25726884289179;-28063.785846928226;-20416.666666666668;-7647.1191802615585
0.19600000000000015;-164918838.0;-151939230.0;-1169309.0;-2952.574383796738;-2840.316607427137;-112.25610338771276;-28063.834245471982;-21333.333333333332;-6730.500912138648
0.20000000000000015;-177178159.0;-163749520.0;-1169318.0;-3064.830162632203;-2952.57271081485;-112.25620098188801;-28063.9447088663;-22166.666666666668;-5897.278042199634
0.20400000000000015;-189885874.0;-176008835.0;-1169324.0;-3176.9287284302586;-3064.828911796738;-112.25635483546512;-28024.641449513867;-23000.0;-5024.641449513865
0.20800000000000016;-203039567.0;-188717176.0;-1168698.0;-3288.423094318197;-3177.085266632203;-112.03846979805576;-27873.591471984582;-23750.0;-4123.591471984582
0.21200000000000016;-216635053.0;-201873670.0;-1165897.0;-3398.871222388035;-3289.1237364302588;-111.22546988793829;-27612.03201745957;-24500.0;-3112.032017459569
0.21600000000000016;-230664474.0;-215475066.0;-1159987.0;-3507.3552106072684;-3400.349206318197;-109.88076806983827;-27120.9970548083;-25166.666666666668;-1954.3303881416314
0.22000000000000017;-245111332.0;-229515985.0;-1148489.0;-3611.714298025938;-3510.2299743880353;-107.3801802192329;-26089.771854667448;-25750.0;-339.77185466744686
0.22400000000000017;-259950312.0;-243986425.0;-1124907.0;-3709.7447635312765;-3617.610154607268;-102.0952154186698;-24507.61637633457;-26250.0;1742.3836236654324
0.22800000000000017;-275151308.0;-258865246.0;-1085066.0;-3800.248937598024;-3719.705370025938;-94.2057295053387;-22626.043516686877;-26750.0;4123.956483313123
0.23200000000000018;-290680432.0;-274120890.0;-1030418.0;-3882.280787258439;-3813.9110995312767;-85.25796606674749;-20507.96241510375;-27083.333333333332;6575.370918229584
0.23600000000000018;-306499135.0;-289717566.0;-962866.0;-3954.675420515723;-3899.169065598024;-75.54685766041484;-18098.65831432103;-27333.333333333332;9234.675019012304
0.24000000000000019;-322565026.0;-305616429.0;-882706.0;-4016.472565640906;-3974.715923258439;-64.69927325728395;-15449.286281295714;-27333.333333333332;11884.047052037618
0.2440000000000002;-338833990.0;-321774089.0;-790937.0;-4067.2409764405747;-4039.415196515723;-52.987321125182916;-12692.102699917199;-27250.0;14557.897300082801
0.2480000000000002;-355261352.0;-338143699.0;-690291.0;-4106.840294749527;-4092.402517640906;-41.10639479966903;-9899.829577238052;-26916.666666666668;17016.837089428616
0.25200000000000017;-371804882.0;-354677734.0;-583618.0;-4135.882193972419;-4133.508912440575;-29.35871030895214;-7260.474805723106;-26500.0;19239.525194276895
0.25600000000000017;-388430555.0;-371329204.0;-475678.0;-4156.418040810458;-4162.867622749527;-18.67965922289204;-5133.961709509549;-25916.666666666668;20782.70495715712
0.2600000000000002;-405113204.0;-388055393.0;-375162.0;-4170.662155683268;-4181.547281972419;-10.886310838038298;-3561.0287182025786;-25333.333333333332;21772.304615130754
0.2640000000000002;-421832716.0;-404825127.0;-288077.0;-4179.87774628876;-4192.433592810457;-5.883954872810136;-2303.897651373063;-24583.333333333332;22279.43568196027
0.2680000000000002;-438573015.0;-421618397.0;-214319.0;-4185.074419664516;-4198.317547683268;-2.1348226054924453;-1299.1683439390727;-23833.333333333332;22534.16498939426
0.2720000000000002;-455322827.0;-438420206.0;-152809.0;-4187.452833515083;-4200.45237028876;0.7082866242435557;-594.603462641544;-22916.666666666668;22322.063204025122
0.2760000000000002;-472075387.0;-455219182.0;-103645.0;-4188.1398178813915;-4199.744083664516;2.3413301494338157;-171.74609157723353;-22000.0;21828.25390842277
0.2800000000000002;-488827410.0;-472008793.0;-66594.0;-4188.005488585775;-4197.402753515083;2.8699116336911175;33.582323904056466;-21083.333333333332;21116.91565723739
0.2840000000000002;-505577894.0;-488786924.0;-40486.0;-4187.620832435103;-4194.5328418813915;2.640697295616519;96.16403766813164;-20250.0;20346.16403766813
0.2880000000000002;-522327015.0;-505554492.0;-23402.0;-4187.280126834146;-4191.892144585775;2.024720150671783;85.17640023910644;-19416.666666666668;19501.843066905774
0.2920000000000002;-539075326.0;-522313961.0;-13054.0;-4187.077634062207;-4189.867424435103;1.334113600956698;50.62319298485818;-18500.0;18550.623192984858
0.2960000000000002;-555823323.0;-539068094.0;-7232.0;-4186.998959974593;-4188.5333108341465;0.7614047719398513;19.668521903440706;-17583.333333333332;17603.001855236773
0.3000000000000002;-572571297.0;-555819181.0;-4142.0;-4186.993411608818;-4187.771906062207;0.37531408761333296;1.3870914438030013;-16666.666666666668;16668.053758110473
0.3040000000000002;-589319358.0;-572568767.0;-2530.0;-4187.015026183251;-4187.396591974593;0.1603003657755835;-5.403643608360653;-15750.0;15744.59635639164
0.3080000000000002;-606067506.0;-589317712.0;-1646.0;-4187.03674871472;-4187.236291608818;0.06324942556602764;-5.43063286704637;-14916.666666666666;14911.23603379962
0.3120000000000002;-622815702.0;-606066404.0;-1102.0;-4187.048870944354;-4187.173042183252;0.030501468531838327;-3.0305574086924025;-14000.0;13996.969442591308
0.3160000000000002;-639563911.0;-622814974.0;-728.0;-4187.051885626303;-4187.14254071472;0.023781770365530974;-0.753670487256386;-13166.666666666666;13165.91299617941
0.32000000000000023;-656312111.0;-639563449.0;-462.0;-4187.049858004387;-4187.118758944354;0.022521318051076378;0.5069054791420058;-12250.0;12250.506905479142
0.32400000000000023;-673060298.0;-656311833.0;-278.0;-4187.04652492496;-4187.096237626303;0.01969162191653595;0.8332698566846375;-11416.666666666666;11417.49993652335
0.32800000000000024;-689808474.0;-673060139.0;-159.0;-4187.043949859351;-4187.076546004387;0.014757079426999553;0.6437664021632372;-10500.0;10500.643766402163
0.33200000000000024;-706556646.0;-689808386.0;-88.0;-4187.042684923975;-4187.06178892496;0.009391065608724602;0.3162338441597967;-9666.666666666666;9666.982900510826
0.33600000000000024;-723304817.0;-706556595.0;-51.0;-4187.042447959715;-4187.052397859351;0.004816935375856701;0.059241064946036204;-8750.0;8750.059241064946
0.34000000000000025;-740052988.0;-723304785.0;-32.0;-4187.042728275179;-4187.047580923975;0.002060964259726461;-0.0700788659742102;-7916.666666666667;7916.596587800693
0.34400000000000025;-756801162.0;-740052967.0;-21.0;-4187.043121372883;-4187.045519959715;0.0007756845361654996;-0.09827442613641324;-7000.0;6999.901725573864
0.34800000000000025;-773549336.0;-756801145.0;-17.0;-4187.043422308813;-4187.044744275179;-9.097704605665058e-06;-0.0752339824430237;-6166.666666666667;6166.591432684224
0.35200000000000026;-790297511.0;-773549324.0;-12.0;-4187.0435854115;-4187.044753372884;0.00017906407083501108;-0.04077567177773744;-5333.333333333333;5333.292557661555
0.35600000000000026;-807045687.0;-790297502.0;-9.0;-4187.043646172805;-4187.044574308813;0.00012489731307141483;-0.015190326166703016;-4416.666666666667;4416.6514763405
0.36000000000000026;-823793862.0;-807045679.0;-8.0;-4187.043658499588;-4187.0444494115;3.5238695090811234e-05;-0.0030816956950729946;-3666.6666666666665;3666.6635849709714
0.36400000000000027;-840542037.0;-823793856.0;-6.0;-4187.043662569308;-4187.044414172805;0.00017967321673495462;-0.0010174301223742077;-2916.6666666666665;2916.665649236544
0.36800000000000027;-857290213.0;-840542032.0;-5.0;-4187.043677416737;-4187.044234499588;9.193028017762117e-05;-0.0037118572890904034;-2333.3333333333335;2333.3296214760444
0.3720000000000003;-874038389.0;-857290208.0;-5.0;-4187.043706250045;-4187.044142569308;-1.4847429156361613e-05;-0.007208326906038565;-1666.6666666666667;1666.6594583397607
0.3760000000000003;-890786564.0;-874038384.0;-5.0;-4187.043744748183;-4187.044157416737;-2.883330762415426e-05;-0.009624534413887886;-1166.6666666666667;1166.6570421322529
0.3800000000000003;-907534740.0;-890786560.0;-4.0;-4187.043787297981;-4187.044186250045;5.7501862102071755e-05;-0.010637449577188818;-750.0;749.9893625504228
0.3840000000000003;-924282916.0;-907534736.0;-4.0;-4187.043829974385;-4187.044128748183;-4.254979830875527e-05;-0.010669100902305217;-500.0;499.9893308990977
0.3880000000000003;-941031093.0;-924282912.0;-4.0;-4187.043871061451;-4187.044171297981;-4.267640360922087e-05;-0.010271766541336547;-250.0;249.98972823345866
0.3920000000000003;-957779269.0;-941031088.0;-5.0;-4187.043910394005;-4187.044213974385;-0.0001370870659229695;-0.009833138619796955;-83.33333333333333;83.32350019471353
0.3960000000000003;-974527446.0;-957779265.0;-4.0;-4187.043948487389;-4187.0443510614505;5.666744527843548e-05;-0.009523345852358034;83.33333333333333;-83.34285667918569
0.4000000000000003;-991275622.0;-974527442.0;-4.0;-4187.04398592557;-4187.044294394005;-3.8093383409432136e-05;-0.009359545401821379;83.33333333333333;-83.34269287873515
0.4040000000000003;-1008023799.0;-991275619.0;-3.0;-4187.044023091884;-4187.044332487389;5.8561818150337785e-05;-0.009291578408010537;166.66666666666666;-166.67595824507467
0.4080000000000003;-1024771976.0;-1008023796.0;-3.0;-4187.044060138692;-4187.04427392557;-3.716631363204215e-05;-0.009261701961804647;83.33333333333333;-83.34259503529513
0.4120000000000003;-1041520154.0;-1024771973.0;-3.0;-4187.044097068065;-4187.044311091884;-3.704680784721859e-05;-0.009232343245457741;83.33333333333333;-83.34256567657879
0.4160000000000003;-1058268331.0;-1041520150.0;-4.0;-4187.04413382017;-4187.044348138692;-0.00013292937273945427;-0.009188026297124452;0.0;-0.009188026297124452
0.4200000000000003;-1075016508.0;-1058268327.0;-4.0;-4187.044170335114;-4187.044481068065;-3.675210518849781e-05;-0.0091287361101422;0.0;-0.0091287361101422
0.4240000000000003;-1091764686.0;-1075016505.0;-3.0;-4187.044206575615;-4187.04451782017;5.94850553170545e-05;-0.009060125194082502;0.0;-0.009060125194082502
0.4280000000000003;-1108512864.0;-1091764682.0;-4.0;-4187.044242527886;-4187.0444583351145;-0.0001322405005339533;-0.008988067747850437;0.0;-0.008988067747850437
0.43200000000000033;-1125261042.0;-1108512860.0;-4.0;-4187.044278193339;-4187.044590575615;-3.595227099140175e-05;-0.008916363185562659;0.0;-0.008916363185562659
0.43600000000000033;-1142009220.0;-1125261038.0;-4.0;-4187.044313578318;-4187.044626527886;-3.5665452742250636e-05;-0.008846244782034773;0.0;-0.008846244782034773
0.44000000000000034;-1158757398.0;-1142009216.0;-4.0;-4187.044348688667;-4187.044662193339;-3.5384979128139094e-05;-0.00877758725437161;0.0;-0.00877758725437161
0.44400000000000034;-1175505576.0;-1158757394.0;-4.0;-4187.044383527838;-4187.044697578318;-3.511034901748644e-05;-0.00870979283718043;0.0;-0.00870979283718043
0.44800000000000034;-1192253755.0;-1175505572.0;-4.0;-4187.044418096651;-4187.044732688667;-3.483917134872172e-05;-0.008642203056297149;0.0;-0.008642203056297149
0.45200000000000035;-1209001933.0;-1192253751.0;-4.0;-4187.044452394851;-4187.044767527838;-3.4568812225188594e-05;-0.008574550065532094;0.0;-0.008574550065532094
0.45600000000000035;-1225750112.0;-1209001930.0;-3.0;-4187.0444864213105;-4187.0448020966505;6.170179949549492e-05;-0.008506614904035814;0.0;-0.008506614904035814
0.46000000000000035;-1242498291.0;-1225750108.0;-4.0;-4187.044520175462;-4187.044740394851;-0.00013002645937376656;-0.008438537861366058;0.0;-0.008438537861366058
0.46400000000000036;-1259246470.0;-1242498287.0;-4.0;-4187.0445536564275;-4187.04487042131;-3.375415144546423e-05;-0.008370241403099499;0.0;-0.008370241403099499
0.46800000000000036;-1275994649.0;-1259246466.0;-4.0;-4187.044586864646;-4187.044904175462;-3.3480965612397995e-05;-0.008302054538944503;0.0;-0.008302054538944503
0.47200000000000036;-1292742828.0;-1275994645.0;-4.0;-4187.044619798923;-4187.0449376564275;-3.320821815577801e-05;-0.008233569360527326;0.0;-0.008233569360527326
0.47600000000000037;-1309491008.0;-1292742824.0;-4.0;-4187.044652460015;-4187.044970864646;-3.2934277442109305e-05;-0.008165272902260767;0.0;-0.008165272902260767
0.48000000000000037;-1326239187.0;-1309491004.0;-4.0;-4187.044684847543;-4187.045003798923;-3.266109160904307e-05;-0.0080968820839189;0.0;-0.0080968820839189
0.4840000000000004;-1342987367.0;-1326239184.0;-3.0;-4187.044716961382;-4187.045036460015;6.36124714219477e-05;-0.008028459660636145;0.0;-0.008028459660636145
0.4880000000000004;-1359735547.0;-1342987363.0;-4.0;-4187.04474880128;-4187.044972847543;-0.00012811383840016788;-0.007959974482218968;0.0;-0.007959974482218968
0.4920000000000004;-1376483727.0;-1359735543.0;-4.0;-4187.04478036749;-4187.045100961382;-3.183989792887587e-05;-0.007891552513683564;0.0;-0.007891552513683564
0.4960000000000004;-1393231907.0;-1376483723.0;-4.0;-4187.044811659068;-4187.04513280128;-3.1566210054734256e-05;-0.00782289453127305;0.0;-0.00782289453127305
0.5000000000000003;-1409980087.0;-1393231903.0;-4.0;-4187.044842676391;-4187.04516436749;-3.12915781250922e-05;-0.007754330908937845;0.0;-0.007754330908937845
0.5040000000000003;-1426728267.0;-1409980083.0;-4.0;-4187.044873419271;-4187.045195659068;-3.101732363575138e-05;-0.007685719992878148;0.0;-0.007685719992878148
0.5080000000000003;-1443476448.0;-1426728263.0;-4.0;-4187.044903887395;-4187.045226676391;-3.074287997151259e-05;-0.007617030860274099;0.0;-0.007617030860274099
0.5120000000000003;-1460224628.0;-1443476444.0;-4.0;-4187.044934080636;-4187.045257419271;-3.0468123441096395e-05;-0.007548310350102838;0.0;-0.007548310350102838
