Zeit[sec];Sollposition[°];Istposition[°];Positionsschleppfehler[°];Sollgeschwindigkeit[°/s];Istgeschwindigkeit[°/s];Geschwindigkeitsdifferenz[°/s];Sollbeschleunigung[°/s*s];Istbeschleunigung[°/s*s];Beschleunigungsdifferenz[°/s*s]
0.0;-9979199999.0;-9979199995.0;-4.0;0.0;-0.00023999999999999998;0.0;0.0;0.0;0.0
0.004;-9979199999.0;-9979199995.0;-4.0;0.0;-0.00023999999999999998;0.0;0.0;0.0;0.0
0.008;-9979199999.0;-9979199995.0;-4.0;0.0;-0.00023999999999999998;0.0;0.0;0.0;0.0
0.012;-9979199999.0;-9979199995.0;-4.0;0.0;-0.00023999999999999998;0.0;0.0;0.0;0.0
0.016;-9979199999.0;-9979199995.0;-4.0;0.0;-0.00023999999999999998;0.0;0.0;0.0;0.0
0.02;-9979199999.0;-9979199995.0;-4.0;0.0;-0.00023999999999999998;0.0;0.0;0.0;0.0
0.024;-9979199999.0;-9979199995.0;-4.0;0.0;-0.00023999999999999998;0.0;0.0;0.0;0.0
0.028;-9979199999.0;-9979199995.0;-4.0;0.0;-0.00023999999999999998;0.0;0.0;0.0;0.0
0.032;-9979199999.0;-9979199995.0;-4.0;0.0;-0.00023999999999999998;0.0;0.0;0.0;0.0
0.036000000000000004;-9979199999.0;-9979199995.0;-4.0;0.0;-0.00023999999999999998;0.0;0.0;0.0;0.0
0.04000000000000001;-9979199999.0;-9979199995.0;-4.0;0.0;-0.00023999999999999998;0.0;0.0;0.0;0.0
0.04400000000000001;-9979199999.0;-9979199995.0;-4.0;0.0;-0.00023999999999999998;0.0;0.0;0.0;0.0
0.048000000000000015;-9979199999.0;-9979199995.0;-4.0;0.0;-0.00023999999999999998;0.0;0.0;0.0;0.0
0.05200000000000002;-9979199999.0;-9979199995.0;-4.0;0.0;-0.00023999999999999998;0.0;0.0;0.0;0.0
0.05600000000000002;-9979258356.0;-9979199995.0;-4.0;-14.58907642430529;-0.00023999999999999998;0.0;-3647.2691060763227;0.0;-3647.2691060763227
0.060000000000000026;-9979342201.0;-9979199995.0;-58361.0;-20.961297296224654;-0.00023999999999999998;-18.09049642430529;-1593.055217979841;0.0;-1593.055217979841
0.06400000000000003;-9979472344.0;-9979272357.0;-69844.0;-32.53581281826825;-18.09073642430529;-7.061200871919361;-2893.6288805108984;0.0;-2893.6288805108984
0.06800000000000003;-9979635073.0;-9979372964.0;-99380.0;-40.68227787069211;-25.151937296224652;-13.346675522043597;-2036.6162631059658;-83.33333333333333;-1953.2829297726325
0.07200000000000004;-9979810367.0;-9979526958.0;-108115.0;-43.8233137458643;-38.49861281826825;-8.67056505242386;-785.2589687930465;-166.66666666666666;-618.5923021263798
0.07600000000000004;-9979990065.0;-9979715634.0;-94733.0;-44.92458861659527;-47.16917787069211;-2.3381158751721856;-275.31871768274385;-333.3333333333333;58.01461565058946
0.08000000000000004;-9980175236.0;-9979913663.0;-76402.0;-46.29278054060904;-49.507293745864295;-0.0014148707309757924;-342.0479810034411;-333.3333333333333;-8.714647670107823
0.08400000000000005;-9980359851.0;-9980111697.0;-63539.0;-46.15365262159105;-49.50870861659527;-0.5964119240137649;34.78197975449682;-416.6666666666667;451.4486464211635
0.08800000000000005;-9980524897.0;-9980312117.0;-47734.0;-41.261497231180606;-50.105120540609036;1.0874279190179834;1223.038847602611;-333.3333333333333;1556.3721809359445
0.09200000000000005;-9980654252.0;-9980508187.0;-16710.0;-32.33886473440053;-49.01769262159105;6.753595390410446;2230.658124195019;-416.6666666666667;2647.3247908616854
0.09600000000000006;-9980736163.0;-9980677243.0;22991.0;-20.47777621034759;-42.26409723118061;11.304692496780078;2965.2721310132356;-333.3333333333333;3298.6054643465686
0.10000000000000006;-9980751772.0;-9980801080.0;64917.0;-3.9022074028304004;-30.95940473440053;14.37664852405294;4143.892201879297;-333.3333333333333;4477.22553521263
0.10400000000000006;-9980690391.0;-9980867411.0;115639.0;15.345205760369709;-16.58275621034759;19.618888807517187;4811.853290800027;-250.0;5061.853290800027
0.10800000000000007;-9980562876.0;-9980855267.0;164876.0;31.878764847117758;3.036132597169599;22.20163316320011;4133.389771687012;-83.33333333333333;4216.723105020345
0.11200000000000007;-9980391814.0;-9980754316.0;191440.0;42.765521743034036;25.237765760369708;18.127399086748046;2721.6892239790695;0.0;2721.6892239790695
0.11600000000000008;-9980199251.0;-9980580856.0;189042.0;48.140718068429976;43.365164847117754;10.742876895916282;1343.799081348985;250.0;1093.799081348985
0.12000000000000008;-9980002605.0;-9980364424.0;165173.0;49.16145330534785;54.108041743034036;3.9430563253959434;255.18380922946804;250.0;5.183809229468039
0.12400000000000008;-9979815024.0;-9980132220.0;129615.0;46.895324200489014;58.05109806842998;-1.1127447630821337;-566.5322762147084;416.6666666666667;-983.1989428813752
0.12800000000000009;-9979642791.0;-9979904467.0;89443.0;43.058319057801945;56.938353305347846;-4.676449104858833;-959.2512856717672;416.6666666666667;-1375.917952338434
0.1320000000000001;-9979491290.0;-9979695420.0;52629.0;37.875162037165275;52.26190420048901;-6.045845142687071;-1295.7892551591676;500.0;-1795.7892551591676
0.1360000000000001;-9979373057.0;-9979510556.0;19266.0;29.558288011785606;46.21605905780194;-7.184937020636667;-2079.218506344917;416.6666666666667;-2495.885173011584
0.1400000000000001;-9979297096.0;-9979354432.0;-18625.0;18.99023405506872;39.031122037165275;-10.590334025379669;-2642.013489179222;333.3333333333333;-2975.3468225125553
0.1440000000000001;-9979259363.0;-9979240669.0;-56427.0;9.43335338993976;28.440788011785607;-12.836173956716888;-2389.2201662822395;250.0;-2639.2201662822395
0.1480000000000001;-9979199999.0;-9979178251.0;-81112.0;14.840801036359423;15.60461405506872;-11.03798066512896;1351.8619116049156;166.66666666666666;1185.1952449382488
0.1520000000000001;-9979199999.0;-9979159985.0;-40014.0;0.0;4.566633389939761;7.873327646419663;-3710.2002590898555;83.33333333333333;-3793.533592423189
0.1560000000000001;-9979257376.0;-9979110226.0;-89773.0;-14.34410302225162;12.439961036359424;-17.826341036359423;-3586.025755562905;0.0;-3586.025755562905
0.16000000000000011;-9979263394.0;-9979131771.0;-125605.0;-1.5044631767657268;-5.38638;-16.49402302225162;3209.9099613714734;0.0;3209.9099613714734
0.16400000000000012;-9979266874.0;-9979219292.0;-44102.0;-0.8701709985789868;-21.88040302225162;17.729819845485892;158.573044546685;0.0;158.573044546685
0.16800000000000012;-9979268102.0;-9979235894.0;-30980.0;-0.3068800820087321;-4.150583176765727;1.4216121781867401;140.82272914256367;0.0;140.82272914256367
0.17200000000000013;-9979268034.0;-9979246809.0;-21293.0;0.01689071123524505;-2.7289709985789865;1.1445109165702545;80.94269831099429;0.0;80.94269831099429
0.17600000000000013;-9979267533.0;-9979253146.0;-14888.0;0.1252915184028227;-1.584460082008732;0.7080707932439771;27.100201791894417;0.0;27.100201791894417
0.18000000000000013;-9979267095.0;-9979256651.0;-10882.0;0.1096470771015384;-0.8763892887647549;0.3487608071675776;-3.911110325321078;0.0;-3.911110325321078
0.18400000000000014;-9979266882.0;-9979258761.0;-8334.0;0.05311155106845913;-0.5276284815971772;0.13723555869871573;-14.133881508269818;0.0;-14.133881508269818
0.18800000000000014;-9979266867.0;-9979260322.0;-6560.0;0.0037798753785258897;-0.3903929228984615;0.04990447396692066;-12.332918922483309;0.0;-12.332918922483309
0.19200000000000014;-9979266957.0;-9979261683.0;-5184.0;-0.02257332927129657;-0.34048844893154084;0.033228324310066726;-6.588301162455616;0.0;-6.588301162455616
0.19600000000000015;-9979267073.0;-9979262912.0;-4045.0;-0.0289681740200623;-0.3072601246214741;0.041986795350177575;-1.5987111871914317;0.0;-1.5987111871914317
0.20000000000000015;-9979267172.0;-9979263973.0;-3100.0;-0.02459855942766188;-0.26527332927129654;0.050305155251234274;1.0924036481001045;166.66666666666666;-165.57426301856654
0.20400000000000015;-9979267241.0;-9979264832.0;-2340.0;-0.017447512753116096;-0.21496817402006227;0.0499696145924004;1.7877616686364461;250.0;-248.21223833136355
0.20800000000000016;-9979267289.0;-9979265491.0;-1750.0;-0.011846824180956969;-0.16499855942766187;0.042551046674545775;1.4001721430397818;416.6666666666667;-415.26649452362693
0.21200000000000016;-9979267325.0;-9979265980.0;-1309.0;-0.008948909981056258;-0.12244751275311609;0.03206068857215913;0.7244785499751776;333.3333333333333;-332.60885478335814
0.21600000000000016;-9979267357.0;-9979266341.0;-984.0;-0.0081697154642472;-0.09038682418095696;0.022397914199900712;0.19479862920226443;416.6666666666667;-416.47186803746445
0.22000000000000017;-9979267391.0;-9979266612.0;-745.0;-0.008451348302950955;-0.06798890998105625;0.015119194516809056;-0.07040820967593861;333.3333333333333;-333.40374154300923
0.22400000000000017;-9979267427.0;-9979266823.0;-568.0;-0.008956398457262564;-0.052869715464247194;0.010338367161296241;-0.12626253857790215;416.6666666666667;-416.7929292052446
0.22800000000000017;-9979267464.0;-9979266993.0;-434.0;-0.009261771205354442;-0.04253134830295095;0.007534949845688393;-0.07634318702296958;250.0;-250.07634318702296
0.23200000000000018;-9979267501.0;-9979267132.0;-332.0;-0.00927538278692714;-0.03499639845726256;0.005814627251908122;-0.003402895393174541;250.0;-250.00340289539318
0.23600000000000018;-9979267537.0;-9979267248.0;-253.0;-0.009073834199410529;-0.029181771205354437;0.004726388418427298;0.050387146879152765;83.33333333333333;-83.28294618645418
0.24000000000000019;-9979267572.0;-9979267345.0;-192.0;-0.00877156181261934;-0.02445538278692714;0.003861548587516611;0.07556809669779715;0.0;0.07556809669779715
0.2440000000000002;-9979267606.0;-9979267427.0;-145.0;-0.008453597182986093;-0.020593834199410528;0.003122272386791188;0.07949115740831175;-166.66666666666666;166.74615782407497
0.2480000000000002;-9979267639.0;-9979267496.0;-110.0;-0.008160046780503622;-0.01747156181261934;0.0024179646296332465;0.07338760062061775;-333.3333333333333;333.4067209339539
0.25200000000000017;-9979267671.0;-9979267556.0;-83.0;-0.007897382843825787;-0.015053597182986093;0.001913550402482471;0.06566598416945894;-416.6666666666667;416.73233265083616
0.25600000000000017;-9979267701.0;-9979267608.0;-63.0;-0.007656074034204742;-0.013140046780503623;0.0014626639366778355;0.06032720240526117;-500.0;500.06032720240523
0.2600000000000002;-9979267731.0;-9979267654.0;-47.0;-0.007423894627241096;-0.011677382843825787;0.0012013088096210454;0.05804485174091146;-416.6666666666667;416.7247115184076
0.2640000000000002;-9979267760.0;-9979267695.0;-36.0;-0.0071923099010257705;-0.010476074034204742;0.0008921794069636467;0.057896181553831416;-416.6666666666667;416.7245628482205
0.2680000000000002;-9979267787.0;-9979267733.0;-27.0;-0.006957595959519059;-0.009583894627241095;0.0007715847262153245;0.05867848537667781;-333.3333333333333;333.39201181871
0.2720000000000002;-9979267814.0;-9979267768.0;-19.0;-0.006719414633949959;-0.00881230990102577;0.0007147139415067116;0.05954533139227499;-250.0;250.0595453313923
0.2760000000000002;-9979267840.0;-9979267800.0;-14.0;-0.00647891431314832;-0.008097595959519059;0.0005381813255690999;0.06012508020040975;-83.33333333333333;83.39345841353374
0.2800000000000002;-9979267865.0;-9979267830.0;-10.0;-0.006237398331874051;-0.007559414633949959;0.00048050032080163875;0.0603789953185674;0.0;0.0603789953185674
0.2840000000000002;-9979267889.0;-9979267858.0;-7.0;-0.005995722210951396;-0.00707891431314832;0.0004215159812742692;0.0604190302306636;-83.33333333333333;83.39375236356399
0.2880000000000002;-9979267912.0;-9979267884.0;-5.0;-0.005754229601409593;-0.006657398331874051;0.0003616761209226547;0.06037315238545089;-83.33333333333333;83.39370648571878
0.2920000000000002;-9979267934.0;-9979267909.0;-3.0;-0.005512927428206408;-0.006295722210951396;0.0003614926095418039;0.060325543300796244;0.0;0.060325543300796244
0.2960000000000002;-9979267955.0;-9979267932.0;-2.0;-0.005271685271303879;-0.005934229601409592;0.00030130217320318425;0.060310539225632294;83.33333333333333;-83.2730227941077
0.3000000000000002;-9979267975.0;-9979267954.0;-1.0;-0.005030371267964507;-0.005632927428206408;0.00030124215690252934;0.060328500834842896;83.33333333333333;-83.27300483249849
0.3040000000000002;-9979267995.0;-9979267975.0;0.0;-0.00478890404993452;-0.005331685271303879;0.00030131400333937176;0.06036680450749671;0.0;0.06036680450749671
0.3080000000000002;-9979268013.0;-9979267995.0;0.0;-0.004547256783002565;-0.005030371267964507;0.00024146721802998684;0.06041181673298876;0.0;0.06041181673298876
0.3120000000000002;-9979268030.0;-9979268014.0;1.0;-0.0043054358150465995;-0.00478890404993452;0.0003016472669319552;0.0604552419889914;0.0;0.0604552419889914
0.3160000000000002;-9979268046.0;-9979268031.0;1.0;-0.004063459612620668;-0.004487256783002565;0.0002418209679559656;0.06049405060648289;0.0;0.06049405060648289
0.32000000000000023;-9979268062.0;-9979268047.0;1.0;-0.003821346065199007;-0.004245435815046599;0.00024197620242593157;0.06052838685541523;0.0;0.06052838685541523
0.32400000000000023;-9979268076.0;-9979268063.0;1.0;-0.0035791078685375225;-0.004003459612620668;0.00024211354742166092;0.060559549165371124;0.0;0.060559549165371124
0.32800000000000024;-9979268089.0;-9979268078.0;2.0;-0.0033367496392747264;-0.003761346065199007;0.0003022381966614842;0.06058955731569901;0.0;0.06058955731569901
0.33200000000000024;-9979268102.0;-9979268091.0;2.0;-0.003094274839889504;-0.0034591078685375226;0.00024235822926279606;0.06061869984630561;0.0;0.06061869984630561
0.33600000000000024;-9979268113.0;-9979268103.0;1.0;-0.0028516863557809242;-0.0032167496392747266;0.0001824747993852227;0.06064712102714495;0.0;0.06064712102714495
0.34000000000000025;-9979268123.0;-9979268115.0;2.0;-0.002608985052568709;-0.003034274839889504;0.0003025884841085795;0.06067532580305386;0.0;0.06067532580305386
0.34400000000000025;-9979268133.0;-9979268125.0;2.0;-0.0023661741041918344;-0.0027316863557809243;0.00024270130321221543;0.060702737094218605;0.0;0.060702737094218605
0.34800000000000025;-9979268141.0;-9979268134.0;1.0;-0.0021232578387489053;-0.002488985052568709;0.0001828109483768747;0.06072906636073226;0.0;0.06072906636073226
0.35200000000000026;-9979268149.0;-9979268143.0;2.0;-0.001880238276019272;-0.0023061741041918342;0.0003029162654429288;0.06075489068240836;0.0;0.06075489068240836
0.35600000000000026;-9979268155.0;-9979268151.0;2.0;-0.0016371200326414448;-0.0020032578387489054;0.00024301956272963342;0.060779560844456765;0.0;0.060779560844456765
0.36000000000000026;-9979268161.0;-9979268158.0;3.0;-0.0013939065710943087;-0.001760238276019272;0.00030311824337782723;0.06080336538678404;0.0;0.06080336538678404
0.36400000000000027;-9979268166.0;-9979268163.0;2.0;-0.0011506019309365616;-0.0014571200326414448;0.00018321346154713623;0.06082616003943677;0.0;0.06082616003943677
0.36800000000000027;-9979268169.0;-9979268168.0;2.0;-0.0009072087090273661;-0.0012739065710943086;0.00024330464015774687;0.06084830547729888;0.0;0.06084830547729888
0.3720000000000003;-9979268172.0;-9979268172.0;3.0;-0.0006637326761648623;-0.0010306019309365617;0.00030339322190919556;0.06086900821562595;0.0;0.06086900821562595
0.3760000000000003;-9979268174.0;-9979268174.0;2.0;-0.0004201746979687713;-0.0007272087090273661;0.00018347603286250386;0.06088949454902274;0.0;0.06088949454902274
0.3800000000000003;-9979268174.0;-9979268176.0;2.0;-0.00017654141085695396;-0.0005437326761648623;0.00024355797819609095;0.06090832177795434;0.0;0.06090832177795434
0.3840000000000003;-9979268174.0;-9979268177.0;3.0;6.716603101096174e-05;-0.0003001746979687713;0.0003036332871118174;0.06092686046697893;0.0;0.06092686046697893
0.3880000000000003;-9979268173.0;-9979268177.0;3.0;0.0003109432995363709;3.4585891430460273e-06;0.00024370744186791573;0.06094431713135229;0.0;0.06094431713135229
0.3920000000000003;-9979268171.0;-9979268177.0;4.0;0.0005547863551605752;0.00024716603101096175;0.00030377726852540913;0.06096076390605108;0.0;0.06096076390605108
0.3960000000000003;-9979268151.0;-9979268175.0;4.0;0.004815435871462751;0.0005509432995363709;0.00024384305562420434;1.0651623790755438;0.0;1.0651623790755438
0.4000000000000003;-9979268073.0;-9979268172.0;21.0;0.019579577695446285;0.0007947863551605752;0.005280649516302176;3.6910354559958836;0.0;3.6910354559958836
0.4040000000000003;-9979267902.0;-9979268148.0;75.0;0.042860687856570046;0.006075435871462751;0.018004141823983535;5.82027754028094;0.0;5.82027754028094
0.4080000000000003;-9979263433.0;-9979268052.0;150.0;1.1171775685218635;0.024079577695446285;0.02778111016112376;268.57922016632335;0.0;268.57922016632335
0.4120000000000003;-9979199999.0;-9979267845.0;4412.0;15.858331429367967;0.05186068785657005;1.3300368806652934;3685.288465211526;0.0;3685.288465211526
0.4160000000000003;-9979199999.0;-9979262318.0;62319.0;0.0;1.3818975685218633;18.215573860846103;-3964.5828573419917;0.0;-3964.5828573419917
0.4200000000000003;-9979128943.0;-9979183929.0;-16070.0;17.764016553963458;19.597471429367967;-20.56167142936797;4441.0041384908645;0.0;4441.0041384908645
0.4240000000000003;-9979029427.0;-9979187785.0;58842.0;24.87900159720613;-0.9642;22.25873655396346;1778.7462608106682;0.0;1778.7462608106682
0.4280000000000003;-9978902427.0;-9979102607.0;73180.0;31.750018471035528;21.294536553963457;7.975265043242672;1717.7542184573492;83.33333333333333;1634.420885124016
0.43200000000000033;-9978754338.0;-9978985528.0;83101.0;37.02237802807413;29.26980159720613;7.466276873829397;1318.0898892596504;166.66666666666666;1151.4232225929838
0.43600000000000033;-9978593704.0;-9978838584.0;84246.0;40.15844790263475;36.736078471035526;5.341059557038605;784.0174686401547;250.0;534.0174686401547
0.44000000000000034;-9978427734.0;-9978670276.0;76572.0;41.49260216342822;42.07713802807413;2.675629874560613;333.5385651983671;250.0;83.53856519836711
0.44400000000000034;-9978265079.0;-9978491265.0;63531.0;40.66369046776356;44.752767902634744;0.5516942607934752;-207.2279239161645;333.3333333333333;-540.5612572494979
0.44800000000000034;-9978118709.0;-9978310048.0;44969.0;36.5923774125988;45.30446216342822;-1.9426316956646588;-1017.8282637911896;333.3333333333333;-1351.1615971245228
0.45200000000000035;-9977997798.0;-9978136601.0;17892.0;30.22786305379771;43.36183046776356;-5.695933055164758;-1591.1285897002729;333.3333333333333;-1924.4619230336064
0.45600000000000035;-9977904635.0;-9977985938.0;-11860.0;23.290818901997003;37.6658974125988;-8.149634358801094;-1734.2610379501764;333.3333333333333;-2067.5943712835096
0.46000000000000035;-9977840285.0;-9977867873.0;-36762.0;16.08729058467979;29.516263053797708;-8.431164151800704;-1800.8820793293037;250.0;-2050.8820793293035
0.46400000000000036;-9977803126.0;-9977783533.0;-56752.0;9.289768450666575;21.085098901997004;-8.402928317317215;-1699.3805335033035;250.0;-1949.3805335033035
0.46800000000000036;-9977788038.0;-9977732805.0;-70321.0;3.7720191561883367;12.682170584679788;-7.611662134013213;-1379.4373236195595;83.33333333333333;-1462.7706569528928
0.47200000000000036;-9977790470.0;-9977712523.0;-75515.0;-0.6080120578099609;5.070508450666575;-5.829389294478238;-1095.0078034995745;166.66666666666666;-1261.674470166241
0.47600000000000037;-9977806529.0;-9977715558.0;-74912.0;-4.014652757839475;-0.7588808438116632;-4.343851213998297;-851.6601750073784;83.33333333333333;-934.9935083407117
0.48000000000000037;-9977837417.0;-9977735968.0;-70561.0;-7.722054646328349;-5.102732057809961;-3.145580700029514;-926.8504721222187;0.0;-926.8504721222187
0.4840000000000004;-9977893674.0;-9977768961.0;-68456.0;-14.064272726683129;-8.248312757839475;-3.581101888488874;-1585.554520088695;-83.33333333333333;-1502.2211867553615
0.4880000000000004;-9977984009.0;-9977816278.0;-77396.0;-22.583719907856047;-11.829414646328349;-6.87861808035478;-2129.8617952932295;-83.33333333333333;-2046.5284619598963
0.4920000000000004;-9978106281.0;-9977891110.0;-92899.0;-30.5680523921502;-18.70803272668313;-9.449627181172918;-1996.0831210735385;-83.33333333333333;-1912.749787740205
0.4960000000000004;-9978251546.0;-9978003740.0;-102541.0;-36.31620021893822;-28.157659907856047;-8.562852484294151;-1437.036956697005;-166.66666666666666;-1270.3702900303385
0.5000000000000003;-9978409707.0;-9978150622.0;-100924.0;-39.54029023577725;-36.7205123921502;-5.65112782678802;-806.022504209757;-250.0;-556.022504209757
