Zeit[sec];Sollposition[°];Istposition[°];Positionsschleppfehler[°];Sollgeschwindigkeit[°/s];Istgeschwindigkeit[°/s];Geschwindigkeitsdifferenz[°/s];Sollbeschleunigung[°/s*s];Istbeschleunigung[°/s*s];Beschleunigungsdifferenz[°/s*s]
0.0;0.0;5.0;-5.0;-0.0;-0.00021499999999999997;0.0;0.0;0.0;0.0
0.004;0.0;5.0;-5.0;-0.0;-0.00021499999999999997;0.0;0.0;0.0;0.0
0.008;0.0;5.0;-5.0;-0.0;-0.00021499999999999997;0.0;0.0;0.0;0.0
0.012;0.0;5.0;-5.0;-0.0;-0.00021499999999999997;0.0;0.0;0.0;0.0
0.016;0.0;5.0;-5.0;-0.0;-0.00021499999999999997;0.0;0.0;0.0;0.0
0.02;0.0;5.0;-5.0;-0.0;-0.00021499999999999997;0.0;0.0;0.0;0.0
0.024;0.0;5.0;-5.0;-0.0;-0.00021499999999999997;0.0;0.0;0.0;0.0
0.028;0.0;5.0;-5.0;-0.0;-0.00021499999999999997;0.0;0.0;0.0;0.0
0.032;0.0;5.0;-5.0;-0.0;-0.00021499999999999997;0.0;0.0;0.0;0.0
0.036000000000000004;0.0;5.0;-5.0;-0.0;-0.00021499999999999997;0.0;0.0;0.0;0.0
0.04000000000000001;0.0;5.0;-5.0;-0.0;-0.00021499999999999997;0.0;0.0;0.0;0.0
0.04400000000000001;0.0;5.0;-5.0;-0.0;-0.00021499999999999997;0.0;0.0;0.0;0.0
0.048000000000000015;-281.0;5.0;-5.0;-0.07040878648243347;-0.00021499999999999997;0.0;-17.602196620608368;0.0;-17.602196620608368
0.05200000000000002;-3088.0;5.0;-286.0;-0.7016709336582145;-0.00021499999999999997;-0.08249178648243347;-157.81553679394526;0.0;-157.81553679394526
0.05600000000000002;-16883.0;-325.0;-2763.0;-3.44885492280566;-0.08270678648243347;-0.737773147175781;-686.7959972868614;0.0;-686.7959972868614
0.060000000000000026;-62482.0;-3606.0;-13277.0;-11.399641486237089;-0.8204799336582145;-3.1992859891474454;-1987.6966408578571;0.0;-1987.6966408578571
0.06400000000000003;-178158.0;-19685.0;-42797.0;-28.91899539736056;-4.01976592280566;-9.220146563431427;-4379.838477780868;0.0;-4379.838477780868
0.06800000000000003;-420092.0;-72644.0;-105514.0;-60.48367310485555;-13.239912486237088;-20.21618491112347;-7891.1694268737465;0.0;-7891.1694268737465
0.07200000000000004;-857065.0;-206468.0;-213624.0;-109.24314385452954;-33.45609739736056;-36.21340770749499;-12189.867687418497;-83.33333333333333;-12106.534354085163
0.07600000000000004;-1563594.0;-485146.0;-371919.0;-176.6321142460113;-69.66950510485555;-55.56615574967398;-16847.24259787044;-250.0;-16597.24259787044
0.08000000000000004;-2616455.0;-986088.0;-577506.0;-263.215315129285;-125.23566085452953;-76.22921139148175;-21645.800220818423;-583.3333333333334;-21062.46688748509
0.08400000000000005;-4093805.0;-1791947.0;-824508.0;-369.33743467231835;-201.46487224601128;-97.20428688327371;-26530.52988575834;-1000.0;-25530.52988575834
0.08800000000000005;-6072722.0;-2986623.0;-1107182.0;-494.72919439109114;-298.669159129285;-118.27710154303333;-31347.9399296932;-1666.6666666666667;-29681.27326302653
0.09200000000000005;-8624278.0;-4654408.0;-1418314.0;-637.8889555471569;-416.9462606723183;-138.77043571877277;-35789.94028901644;-2416.6666666666665;-33373.27362234978
0.09600000000000006;-11808986.0;-6877274.0;-1747004.0;-796.176980942006;-555.7166963910911;-157.29343115606582;-39572.006348712275;-3333.3333333333335;-36238.67301537895
0.10000000000000006;-15674034.0;-9729314.0;-2079672.0;-966.2621581713403;-713.0101275471569;-172.59274939484908;-42521.29430733356;-4416.666666666667;-38104.6276406669
0.10400000000000006;-20251752.0;-13271725.0;-2402309.0;-1144.4293887722833;-885.602876942006;-183.95856822933422;-44541.807650235765;-5583.333333333333;-38958.47431690244
0.10800000000000007;-25560064.0;-17549970.0;-2701782.0;-1327.0779277312886;-1069.5614451713402;-191.04456960094308;-45662.13473975131;-7000.0;-38662.13473975131
0.11200000000000007;-31605694.0;-22592394.0;-2967670.0;-1511.4073303131718;-1260.6060147722833;-194.08172295900522;-46082.3506454708;-8333.333333333334;-37749.01731213746
0.11600000000000008;-38388745.0;-28411144.0;-3194550.0;-1695.762677557817;-1454.6877377312885;-194.08524258188322;-46088.83681116129;-9833.333333333334;-36255.50347782795
0.12000000000000008;-45906720.0;-35006235.0;-3382510.0;-1879.4937438293125;-1648.7729803131717;-192.43762724464523;-45932.7665678739;-11333.333333333334;-34599.433234540564
0.12400000000000008;-54157022.0;-42371077.0;-3535643.0;-2062.575287566903;-1841.210607557817;-190.31578527149554;-45770.385934397666;-12916.666666666666;-32853.719267731
0.12800000000000009;-63137969.0;-50497182.0;-3659840.0;-2245.2366549584913;-2031.5263928293125;-188.42201473759087;-45665.34184789703;-14416.666666666666;-31248.67518123036
0.1320000000000001;-72848752.0;-59376975.0;-3760994.0;-2427.6956086548653;-2219.9484075669034;-187.01098939158783;-45614.738424093506;-15833.333333333334;-29781.40509076017
0.1360000000000001;-83288617.0;-69004812.0;-3843940.0;-2609.966287325696;-2406.959396958491;-186.02563169637415;-45567.66966770772;-17333.333333333332;-28234.336334374388
0.1400000000000001;-94455686.0;-79376752.0;-3911865.0;-2791.766938224842;-2592.9850286548653;-185.19145367083092;-45450.16272478642;-18833.333333333332;-26616.82939145309
0.1440000000000001;-106345281.0;-90489457.0;-3966229.0;-2972.3987301449797;-2778.1764823256963;-184.1383028991454;-45157.94798003446;-20250.0;-24907.947980034463
0.1480000000000001;-118946161.0;-102338716.0;-4006565.0;-3150.2198314237107;-2962.3147852248417;-182.366239920138;-44455.275319682754;-21666.666666666668;-22788.608653016086
0.1520000000000001;-132234645.0;-114917440.0;-4028721.0;-3322.1208791285353;-3144.6810251449797;-178.77380927873082;-42975.26192620614;-23083.333333333332;-19891.928592872813
0.1560000000000001;-146170491.0;-128211259.0;-4023386.0;-3483.9612978872674;-3323.4548344237105;-171.671642704825;-40460.10468968302;-24583.333333333332;-15876.771356349689
0.16000000000000011;-160697241.0;-142191764.0;-3978727.0;-3631.6873591355834;-3495.1264771285355;-159.92008175873207;-36931.515312079;-25916.666666666668;-11014.848645412332
0.16400000000000012;-175745711.0;-156811950.0;-3885291.0;-3762.117247036699;-3655.0465588872676;-143.7083132483158;-32607.47197527894;-27333.333333333332;-5274.1386419456085
0.16800000000000012;-191238500.0;-172006969.0;-3738742.0;-3873.197040411234;-3798.7548721355834;-124.12828090111589;-27769.9483436337;-28500.0;730.0516563662995
0.17200000000000013;-207094501.0;-187698501.0;-3539999.0;-3964.0000533059347;-3922.8831530366992;-102.53384437453451;-22700.75322367518;-29666.666666666668;6965.913442991489
0.17600000000000013;-223232629.0;-203800168.0;-3294333.0;-4034.5318552723834;-4025.4169974112338;-80.23937489470063;-17632.950491612177;-30583.333333333332;12950.382841721155
0.18000000000000013;-239574829.0;-220222793.0;-3009836.0;-4085.5498937084676;-4105.656372305934;-58.298430966448905;-12754.509609021057;-31416.666666666668;18662.15705764561
0.18400000000000014;-256050274.0;-236878612.0;-2696217.0;-4118.860954384837;-4163.954803272383;-37.532421436084405;-8327.765169092345;-32000.0;23672.234830907655
0.18800000000000014;-272601154.0;-253684560.0;-2365714.0;-4137.7197658765035;-4201.487224708468;-19.099431676369022;-4714.702872916632;-32416.666666666668;27701.963793750037
0.19200000000000014;-289186559.0;-270566906.0;-2034248.0;-4146.35107068851;-4220.586656384837;-4.605773491666696;-2157.826203001605;-32750.0;30592.173796998395
0.19600000000000015;-305781912.0;-287467675.0;-1718884.0;-4148.838153501203;-4225.192429876503;4.929347187993699;-621.7707031732971;-32916.666666666664;32294.895963493367
0.20000000000000015;-322375356.0;-304348727.0;-1433185.0;-4148.360800294663;-4220.26308268851;9.797974187306863;119.33830163502535;-32916.666666666664;33036.00496830169
0.20400000000000015;-338963303.0;-321190587.0;-1184769.0;-4146.986557475055;-4210.465108501203;11.159241206540173;343.5607049020746;-32666.666666666668;33010.22737156874
0.20800000000000016;-355546404.0;-337987810.0;-975493.0;-4145.775078652156;-4199.305867294663;10.373110819607973;302.8697057247882;-32250.0;32552.86970572479
0.21200000000000016;-372126653.0;-354743541.0;-802863.0;-4145.061936935416;-4188.932756475055;8.634568822899382;178.28542918482526;-31750.0;31928.285429184827
0.21600000000000016;-388705821.0;-371464733.0;-661920.0;-4144.791861265891;-4180.298187652155;6.773690716739111;67.5189173812214;-31083.333333333332;31150.852250714554
0.22000000000000017;-405284945.0;-388158830.0;-546991.0;-4144.780813884247;-4173.524496935416;5.21202266952514;2.761845410987007;-30333.333333333332;30336.09517874432
0.22400000000000017;-421864400.0;-404832079.0;-452866.0;-4144.863509669619;-4168.312474265891;4.05842238164405;-20.673946342867566;-29333.333333333332;29312.659386990465
0.22800000000000017;-438444175.0;-421489095.0;-375305.0;-4144.943634947994;-4164.254051884247;3.2524272146283693;-20.03131959372695;-28166.666666666668;28146.63534707294
0.23200000000000018;-455024126.0;-438133101.0;-311074.0;-4144.987482921024;-4161.001624669619;2.681807721624864;-10.961993257524227;-26916.666666666668;26905.704673409142
0.23600000000000018;-471604118.0;-454766380.0;-257746.0;-4144.997808730013;-4158.319816947994;2.2492560269702153;-2.581452247341076;-25500.0;25497.41854775266
0.24000000000000019;-488184078.0;-471390662.0;-213456.0;-4144.989844514292;-4156.070560921024;1.8941441910101275;1.991053930396447;-24166.666666666668;24168.657720597064
0.2440000000000002;-504763988.0;-488007367.0;-176711.0;-4144.977310964031;-4154.176416730013;1.5879992157215383;3.1333875651853305;-22583.333333333332;22586.46672089852
0.2480000000000002;-521343860.0;-504617720.0;-146268.0;-4144.967693577087;-4152.588417514292;1.3215825502611551;2.4043467360570503;-21083.333333333332;21085.73768006939
0.25200000000000017;-537923712.0;-521222787.0;-121073.0;-4144.962937091444;-4151.266834964031;1.0930023869441357;1.1891214107890846;-19583.333333333332;19584.52245474412
0.25600000000000017;-554503561.0;-537823482.0;-100230.0;-4144.9619583585445;-4150.173832577087;0.9010054856425995;0.24468322476423054;-18083.333333333332;18083.578016558095
0.2600000000000002;-571083413.0;-554420573.0;-82988.0;-4144.962864847876;-4149.272827091444;0.7423847328991542;-0.22662233277515043;-16583.333333333332;16583.106711000557
0.2640000000000002;-587663271.0;-571014694.0;-68719.0;-4144.96417039376;-4148.530442358545;0.6126605106692296;-0.32638647098792717;-15000.0;14999.673613529012
0.2680000000000002;-604243132.0;-587606365.0;-56906.0;-4144.96512752702;-4147.917781847876;0.5066534541156216;-0.23928331506795075;-13583.333333333334;13583.094050018266
0.2720000000000002;-620822995.0;-604196009.0;-47123.0;-4144.965573983357;-4147.41112839376;0.4197118667398172;-0.11161408428961295;-12166.666666666666;12166.555052582376
0.2760000000000002;-637402858.0;-620783974.0;-39021.0;-4144.9656439055625;-4146.99141652702;0.34793954366341495;-0.017480551377957454;-10750.0;10749.982519448622
0.2800000000000002;-653982721.0;-637370547.0;-32311.0;-4144.9655372760135;-4146.643476983357;0.28846007779429783;0.026657387252271292;-9250.0;9250.026657387252
0.2840000000000002;-670562584.0;-653955967.0;-26754.0;-4144.965402374621;-4146.3550169055625;0.23905762954927923;0.03372534820300643;-7833.333333333333;7833.367058681536
0.2880000000000002;-687142446.0;-670540430.0;-22154.0;-4144.965309108293;-4146.115959276013;0.19793490139272762;0.0233165819736314;-6416.666666666667;6416.689983248641
0.2920000000000002;-703722308.0;-687124102.0;-18344.0;-4144.965268951499;-4145.9180243746205;0.1639232663274015;0.010039198514277814;-5166.666666666667;5166.676705865181
0.2960000000000002;-720302169.0;-703707118.0;-15190.0;-4144.965265675388;-4145.754101108293;0.13566215679475135;0.000819027718534926;-3833.3333333333335;3833.334152361052
0.3000000000000002;-736882031.0;-720289591.0;-12578.0;-4144.965278384856;-4145.618438951498;0.1123192761106111;-0.003177367034368217;-2750.0;2749.9968226329656
0.3040000000000002;-753461893.0;-736871615.0;-10416.0;-4144.965292502573;-4145.506119675388;0.09295329053202295;-0.0035294292501930613;-1750.0;1749.9964705707498
0.3080000000000002;-770041755.0;-753453267.0;-8626.0;-4144.965301668317;-4145.413166384856;0.07695588228307315;-0.0022914359760761727;-1000.0;999.9977085640239
0.3120000000000002;-786621617.0;-770034611.0;-7144.0;-4144.965305281875;-4145.336210502573;0.06371683425550145;-0.000903389491213602;-416.6666666666667;416.6657632771755
0.3160000000000002;-803201479.0;-786615700.0;-5917.0;-4144.965305272392;-4145.272493668317;0.05275738644195371;2.3708253138465807e-06;83.33333333333333;-83.33333096250801
0.32000000000000023;-819781341.0;-803196578.0;-4901.0;-4144.96530382366;-4145.219736281875;0.04368800948395801;0.000362182845492498;333.3333333333333;-333.3329711504878
0.32400000000000023;-836361203.0;-819777282.0;-4059.0;-4144.9653023674355;-4145.176048272391;0.03620744873114745;0.0003640561772044748;583.3333333333334;-583.3329692771562
0.32800000000000024;-852941065.0;-836357841.0;-3362.0;-4144.965301476973;-4145.13984082366;0.029972456224641064;0.00022261565391090699;583.3333333333334;-583.3331107176795
0.33200000000000024;-869520927.0;-852938280.0;-2785.0;-4144.965301159765;-4145.109868367435;0.02481189046284271;7.930202627903782e-05;583.3333333333334;-583.3332540313071
0.33600000000000024;-886100789.0;-869518620.0;-2307.0;-4144.9653011945575;-4145.085056476973;0.02055431720782508;-8.698179954080842e-06;500.0;-500.00000869817995
0.34000000000000025;-902680651.0;-886098878.0;-1911.0;-4144.965301356085;-4145.064502159765;0.017027965207489615;-4.038179213239346e-05;416.6666666666667;-416.6667070484588
0.34400000000000025;-919260513.0;-902679067.0;-1584.0;-4144.9653015048625;-4145.047474194557;0.014060838472687465;-3.719446795003023e-05;333.3333333333333;-333.33337052780126
0.34800000000000025;-935840375.0;-919259200.0;-1313.0;-4144.96530159043;-4145.033413356085;0.011652851221697347;-2.139177013305016e-05;250.0;-250.00002139177013
0.35200000000000026;-952420237.0;-935839287.0;-1088.0;-4144.9653016175735;-4145.021760504863;0.009674914433162485;-6.785967343603261e-06;250.0;-250.00000678596734
0.35600000000000026;-969000099.0;-952419335.0;-902.0;-4144.965301610515;-4145.01208559043;0.007997972856173874;1.764647095114924e-06;250.0;-249.9999982353529
0.36000000000000026;-985579961.0;-968999351.0;-748.0;-4144.965301592886;-4145.0040876175735;0.006622007058467716;4.407183951116167e-06;166.66666666666666;-166.6666622594827
0.36400000000000027;-1002159823.0;-985579340.0;-621.0;-4144.96530157793;-4144.997465610515;0.005461017628476839;3.738932718988508e-06;166.66666666666666;-166.66666292773394
0.36800000000000027;-1018739685.0;-1002159308.0;-515.0;-4144.96530156966;-4144.992004592887;0.004558014956273837;2.067508830805309e-06;83.33333333333333;-83.3333312658245
0.3720000000000003;-1035319547.0;-1018739257.0;-428.0;-4144.965301567453;-4144.98744657793;0.0037410082695714664;5.518359103007242e-07;83.33333333333333;-83.33333278149742
0.3760000000000003;-1051899409.0;-1035319191.0;-356.0;-4144.965301568541;-4144.983705569661;0.003096002207712445;-2.7193891583010554e-07;0.0;-2.7193891583010554e-07
0.3800000000000003;-1068479271.0;-1051899113.0;-296.0;-4144.965301570406;-4144.980609567453;0.002579998912551673;-4.6634340833406895e-07;83.33333333333333;-83.33333379967674
0.3840000000000003;-1085059133.0;-1068479025.0;-246.0;-4144.965301571868;-4144.9780295685405;0.0021499981339729857;-3.653894964372739e-07;83.33333333333333;-83.33333369872283
0.3880000000000003;-1101638995.0;-1085058928.0;-205.0;-4144.965301572676;-4144.9758795704065;0.0017629985386520275;-2.021351974690333e-07;83.33333333333333;-83.33333353546853
0.3920000000000003;-1118218857.0;-1101638824.0;-171.0;-4144.965301572769;-4144.974116571868;0.0014619991916333674;-2.319211489520967e-08;0.0;-2.319211489520967e-08
0.3960000000000003;-1134798719.0;-1118218714.0;-143.0;-4144.965301572676;-4144.972654572676;0.001203999907374964;2.319211489520967e-08;0.0;2.319211489520967e-08
0.4000000000000003;-1151378581.0;-1134798599.0;-120.0;-4144.965301572707;-4144.971450572769;0.0009890000928862719;-7.73070496506989e-09;0.0;-7.73070496506989e-09
0.4040000000000003;-1167958443.0;-1151378480.0;-101.0;-4144.965301572396;-4144.970461572676;0.0008169999691745033;7.776179700158536e-08;0.0;7.776179700158536e-08
0.4080000000000003;-1184538305.0;-1167958358.0;-85.0;-4144.9653015722715;-4144.969644572707;0.0006880003102196497;3.115019353572279e-08;0.0;3.115019353572279e-08
0.4120000000000003;-1201118167.0;-1184538233.0;-72.0;-4144.96530157221;-4144.968956572397;0.0005590001246673637;1.546140993013978e-08;0.0;1.546140993013978e-08
0.4160000000000003;-1217698029.0;-1201118106.0;-61.0;-4144.9653015722715;-4144.968397572272;0.00047300006190198474;-1.546140993013978e-08;0.0;-1.546140993013978e-08
0.4200000000000003;-1234277549.0;-1217697977.0;-52.0;-4144.879705089959;-4144.96792457221;0.00038699993820046075;21.399120578053044;0.0;21.399120578053044
0.4240000000000003;-1250854512.0;-1234277847.0;298.0;-4144.240669753007;-4144.967537572272;0.10064648231218598;159.75883423811865;0.0;159.75883423811865
0.4280000000000003;-1267422208.0;-1250857314.0;2802.0;-4141.923648229509;-4144.86689108996;0.7467073369525679;579.2553808744287;0.0;579.2553808744287
0.43200000000000033;-1283966836.0;-1267433794.0;11586.0;-4136.1568640521555;-4144.120183753007;2.6947335234981438;1441.6960443384141;0.0;1441.6960443384141
0.43600000000000033;-1300464667.0;-1283999495.0;32659.0;-4124.457557905496;-4141.425450229509;6.672923177353368;2924.8265366647956;83.33333333333333;2841.493203331462
0.44000000000000034;-1316878593.0;-1300538505.0;73838.0;-4103.4812668616005;-4134.7525270521555;13.47000314665911;5244.07276097395;83.33333333333333;5160.739427640617
0.44400000000000034;-1333156443.0;-1317023635.0;145042.0;-4069.462451777064;-4121.282523905496;24.038063043895818;8504.703771134133;166.66666666666666;8338.037104467465
0.44800000000000034;-1349233019.0;-1333412612.0;256169.0;-4019.143691078747;-4097.244460861601;38.79727608453686;12579.690174579242;166.66666666666666;12413.023507912574
0.45200000000000035;-1365034551.0;-1349646400.0;413381.0;-3950.382766101819;-4058.4471847770637;57.07887669831689;17190.231244231996;416.6666666666667;16773.56457756533
0.45600000000000035;-1380483540.0;-1365651873.0;617322.0;-3862.2471563382555;-4001.368308078747;77.53038797692761;22033.90244089087;666.6666666666666;21367.235774224202
0.46000000000000035;-1395503436.0;-1381347224.0;863684.0;-3754.9738559110183;-3923.8379201018192;98.72917576356349;26818.325106809312;1166.6666666666667;25651.658440142644
0.46400000000000036;-1410022817.0;-1396647658.0;1144222.0;-3629.8451057912;-3825.1087443382557;119.33643442723724;31282.187529954626;1750.0;29532.187529954626
0.46800000000000036;-1423978350.0;-1411470747.0;1447930.0;-3488.8830645942126;-3705.7723099110185;138.1881941198185;35240.51029924681;2583.3333333333335;32657.176965913473
0.47200000000000036;-1437317404.0;-1425741083.0;1762733.0;-3334.763224199955;-3567.5841157912;154.49857019698766;38529.9600985644;3500.0;35029.9600985644
0.47600000000000037;-1450001115.0;-1439393425.0;2076021.0;-3170.927750604007;-3413.0855455942124;167.59122439425755;40958.86839898697;4583.333333333333;36375.53506565363
0.48000000000000037;-1462005780.0;-1452375402.0;2374287.0;-3001.1661707461567;-3245.494321199955;176.6609115959477;42440.3949644626;5750.0;36690.3949644626
0.4840000000000004;-1473320671.0;-1464650735.0;2644955.0;-2828.722587195201;-3068.833409604007;181.4003038578503;43110.89588773894;7083.333333333333;36027.5625544056
0.4880000000000004;-1483943540.0;-1476200467.0;2879796.0;-2655.7170499565514;-2887.433105746157;182.54174655095585;43251.3843096624;8416.666666666666;34834.71764299573
0.4920000000000004;-1493876145.0;-1487020032.0;3076492.0;-2483.1510697781705;-2704.891359195201;181.4634652386494;43141.49504459522;9833.333333333334;33308.161711261884
0.4960000000000004;-1503121136.0;-1497113743.0;3237598.0;-2311.2478048564462;-2523.4278939565515;179.4935381783812;42975.81623043107;11250.0;31725.816230431064
0.5000000000000003;-1511680531.0;-1506489480.0;3368344.0;-2139.848527880109;-2343.9343557781704;177.52534292172413;42849.8192440843;12666.666666666666;30183.152577417633
