Zeit[sec];Sollposition[°];Istposition[°];Positionsschleppfehler[°];Sollgeschwindigkeit[°/s];Istgeschwindigkeit[°/s];Geschwindigkeitsdifferenz[°/s];Sollbeschleunigung[°/s*s];Istbeschleunigung[°/s*s];Beschleunigungsdifferenz[°/s*s]
0.0;0.0;1.0;-1.0;1.802729411340266e-52;-9.6e-05;0.0;1.126705882087666e-50;0.0;1.126705882087666e-50
0.004;0.0;1.0;-1.0;9.01364705670133e-53;-9.6e-05;0.0;-2.2534117641753323e-50;0.0;-2.2534117641753323e-50
0.008;0.0;1.0;-1.0;9.01364705670133e-53;-9.6e-05;0.0;0.0;0.0;0.0
0.012;0.0;1.0;-1.0;-0.0;-9.6e-05;0.0;-2.2534117641753323e-50;0.0;-2.2534117641753323e-50
0.016;0.0;1.0;-1.0;-0.0;-9.6e-05;0.0;0.0;0.0;0.0
0.02;0.0;1.0;-1.0;-9.01364705670133e-53;-9.6e-05;0.0;-2.2534117641753323e-50;0.0;-2.2534117641753323e-50
0.024;0.0;1.0;-1.0;-0.0;-9.6e-05;0.0;2.2534117641753323e-50;0.0;2.2534117641753323e-50
0.028;0.0;1.0;-1.0;-0.0;-9.6e-05;0.0;0.0;0.0;0.0
0.032;0.0;1.0;-1.0;-0.0;-9.6e-05;0.0;0.0;0.0;0.0
0.036000000000000004;0.0;1.0;-1.0;-0.0;-9.6e-05;0.0;0.0;0.0;0.0
0.04000000000000001;0.0;1.0;-1.0;-0.0;-9.6e-05;0.0;0.0;0.0;0.0
0.04400000000000001;0.0;1.0;-1.0;-0.0;-9.6e-05;0.0;0.0;0.0;0.0
0.048000000000000015;0.0;1.0;-1.0;-0.0;-9.6e-05;0.0;0.0;0.0;0.0
0.05200000000000002;0.0;1.0;-1.0;-0.0;-9.6e-05;0.0;0.0;0.0;0.0
0.05600000000000002;0.0;1.0;-1.0;-0.0;-9.6e-05;0.0;0.0;0.0;0.0
0.060000000000000026;0.0;1.0;-1.0;-0.0;-9.6e-05;0.0;0.0;0.0;0.0
0.06400000000000003;0.0;1.0;-1.0;-0.0;-9.6e-05;0.0;0.0;0.0;0.0
0.06800000000000003;0.0;1.0;-1.0;-0.0;-9.6e-05;0.0;0.0;0.0;0.0
0.07200000000000004;0.0;1.0;-1.0;-0.0;-9.6e-05;0.0;0.0;0.0;0.0
0.07600000000000004;0.0;1.0;-1.0;-0.0;-9.6e-05;0.0;0.0;0.0;0.0
0.08000000000000004;-137.0;1.0;-1.0;-0.0344608981922172;-9.6e-05;0.0;-8.6152245480543;0.0;-8.6152245480543
0.08400000000000005;-1511.0;1.0;-138.0;-0.34342603838608754;-9.6e-05;-0.0476128981922172;-77.24128504846759;0.0;-77.24128504846759
0.08800000000000005;-8263.0;-189.0;-1322.0;-1.688008618131586;-0.0477088981922172;-0.4226291401938704;-336.14564493637465;0.0;-336.14564493637465
0.09200000000000005;-115974.0;-2070.0;-6193.0;-26.927672115931482;-0.47033803838608756;-1.8121985797454987;-6309.915874449974;0.0;-6309.915874449974
0.09600000000000006;-277304.0;-11200.0;-104774.0;-40.33248797663414;-2.2825366181315863;-34.70343949779989;-3351.2039651756645;0.0;-3351.2039651756645
0.10000000000000006;-555487.0;-159143.0;-118161.0;-69.54572183242286;-36.98597611593148;-14.689967860702666;-7303.308463947179;-83.33333333333333;-7219.975130613845
0.10400000000000006;-969003.0;-365846.0;-189641.0;-103.3791200851097;-51.675943976634144;-36.07531385578871;-8458.349563171712;-166.66666666666666;-8291.682896505044
0.10800000000000007;-1510620.0;-716851.0;-252152.0;-135.4042743251781;-87.75125783242285;-39.834454252686854;-8006.288560017101;-416.6666666666667;-7589.621893350434
0.11200000000000007;-2191610.0;-1227193.0;-283427.0;-170.24753607288434;-127.5857120851097;-35.0275542400684;-8710.81543692656;-666.6666666666666;-8044.148770259892
0.11600000000000008;-3046961.0;-1877646.0;-313964.0;-213.837709719401;-162.6132663251781;-37.77481374770625;-10897.543411629165;-1000.0;-9897.543411629165
0.12000000000000008;-4120023.0;-2679198.0;-367763.0;-268.2654167899096;-200.38808007288435;-48.75487764651666;-13606.926767627143;-1250.0;-12356.926767627143
0.12400000000000008;-5452141.0;-3675769.0;-444254.0;-333.0295787482576;-249.142957719401;-61.77084307050859;-16191.04048958701;-1583.3333333333333;-14607.707156253677
0.12800000000000009;-7076638.0;-4919424.0;-532717.0;-406.1242483899522;-310.9138007899096;-73.25660995834801;-18273.66741042364;-2000.0;-16273.66741042364
0.1320000000000001;-9017193.0;-6456105.0;-620533.0;-485.1385350015202;-384.1704107482576;-81.52500564169458;-19753.571652892006;-2500.0;-17253.571652892006
0.1360000000000001;-11289446.0;-8318886.0;-698307.0;-568.0633197907142;-465.6954163899522;-86.48059061156806;-20731.1961972985;-3000.0;-17731.1961972985
0.1400000000000001;-13904407.0;-10527590.0;-761856.0;-653.7402845794587;-552.1760070015202;-89.02548878919401;-21419.241197186126;-3666.6666666666665;-17752.574530519458
0.1440000000000001;-16870055.0;-13092395.0;-812012.0;-741.4118075236488;-641.2014957907143;-90.4919407887445;-21917.880736047522;-4333.333333333333;-17584.54740271419
0.1480000000000001;-20191480.0;-16019168.0;-850887.0;-830.3563268163446;-731.6934365794588;-91.40352294419006;-22236.12982317394;-5083.333333333333;-17152.796489840606
0.1520000000000001;-23871205.0;-19311555.0;-879925.0;-919.931042465863;-823.0969595236488;-91.73216729269575;-22393.67891237961;-5666.666666666667;-16727.012245712947
0.1560000000000001;-27909930.0;-22970871.0;-900334.0;-1009.6812162474262;-914.8291268163446;-91.53397964951841;-22437.543445390787;-6416.666666666667;-16020.87677872412
0.16000000000000011;-32307403.0;-26996323.0;-913607.0;-1099.3682566194893;-1006.363106465863;-91.02438178156308;-22421.760093015793;-7083.333333333333;-15338.426759682457
0.16400000000000012;-37063087.0;-31385872.0;-921531.0;-1188.9209659260782;-1097.387488247426;-90.4477443720632;-22388.177326647223;-7916.666666666667;-14471.510659980557
0.16800000000000012;-42176527.0;-36137212.0;-925875.0;-1278.360049709289;-1187.8352326194893;-89.96973330658898;-22359.770945802666;-8583.333333333334;-13776.437612469332
0.17200000000000013;-47647468.0;-41248431.0;-928096.0;-1367.7351428965887;-1277.8049659260782;-89.65229978321076;-22343.773296824962;-9333.333333333334;-13010.43996349163
0.17600000000000013;-53475825.0;-46718260.0;-929208.0;-1457.089040219363;-1367.457265709289;-89.48184518729977;-22338.47433069354;-9916.666666666666;-12421.807664026877
0.18000000000000013;-59661609.0;-52546016.0;-929809.0;-1546.4459833957194;-1456.9391108965888;-89.41159332277402;-22339.23579408912;-10666.666666666666;-11672.569127422454
0.18400000000000014;-66204865.0;-58731418.0;-930191.0;-1635.8139622269941;-1546.3507042193628;-89.39361517635666;-22341.994707818685;-11333.333333333334;-11008.661374485351
0.18800000000000014;-73105632.0;-65274395.0;-930470.0;-1725.1917436529081;-1635.7443193957195;-89.39476283127465;-22344.445356478504;-12083.333333333334;-10261.112023145168
0.19200000000000014;-80363933.0;-72174951.0;-930681.0;-1814.5751163778339;-1725.139082226994;-89.39803742591403;-22345.84318123143;-12750.0;-9595.84318123143
0.19600000000000015;-87979775.0;-79433099.0;-930834.0;-1903.960447801338;-1814.5371196529081;-89.3980607249257;-22346.33285587603;-13500.0;-8846.332855876028
0.20000000000000015;-95952917.0;-87048839.0;-930936.0;-1993.2852530588323;-1903.9351803778338;-89.39512342350417;-22331.20131437357;-14250.0;-8081.201314373573
0.20400000000000015;-104282427.0;-95022160.0;-930757.0;-2082.377526647314;-1993.330303801338;-89.30762125749447;-22273.068397120427;-14916.666666666666;-7356.401730453759
0.20800000000000016;-112966703.0;-103352711.0;-929716.0;-2171.068741861649;-2082.6379250588325;-88.9923375884814;-22172.803803583745;-15583.333333333334;-6589.470470250413
0.21200000000000016;-122001527.0;-112039232.0;-927471.0;-2258.706035356532;-2171.630262647314;-88.47569521433525;-21909.32337372078;-16250.0;-5659.323373720781
0.21600000000000016;-131375947.0;-121079655.0;-921872.0;-2343.6049343947593;-2260.105957861649;-87.09978949488277;-21224.724759556808;-16916.666666666668;-4308.058092890139
0.22000000000000017;-141072276.0;-130468477.0;-907470.0;-2424.0821383397874;-2347.205747356532;-83.5163070382273;-20119.300986257032;-17666.666666666668;-2452.634319590363
0.22400000000000017;-151069158.0;-140191365.0;-880911.0;-2499.220191921796;-2430.722054394759;-77.92753994502846;-18784.51339550213;-18333.333333333332;-451.18006216879894
0.22800000000000017;-161341819.0;-150225963.0;-843195.0;-2568.1653233211537;-2508.6495943397877;-71.51731758200822;-17236.282849839426;-18916.666666666668;1680.3838168272414
0.23200000000000018;-171861256.0;-160546630.0;-795189.0;-2629.859051905419;-2580.166911921796;-64.33655539935762;-15423.432146066374;-19333.333333333332;3909.901187266957
0.23600000000000018;-182594940.0;-171124643.0;-736613.0;-2683.42088572824;-2644.5034673211535;-56.070432584265745;-13390.458455705244;-19666.666666666668;6276.208210961425
0.24000000000000019;-193508086.0;-181926938.0;-668002.0;-2728.2863265023652;-2700.5738999054192;-46.975177822821024;-11216.360193531273;-19916.666666666668;8700.306473135395
0.2440000000000002;-204564398.0;-192917134.0;-590952.0;-2764.077895875736;-2747.5490777282403;-37.468640774125106;-8947.892343342686;-20083.333333333332;11135.440989990646
0.2480000000000002;-215728815.0;-204057204.0;-507194.0;-2791.104037890291;-2785.0177185023654;-27.75080137337045;-6756.535503638702;-20166.666666666668;13410.131163027967
0.25200000000000017;-226972356.0;-215308278.0;-420537.0;-2810.8853017707083;-2812.768519875736;-18.70707001455503;-4945.315970104389;-20166.666666666668;15221.35069656228
0.25600000000000017;-238272609.0;-226634180.0;-338176.0;-2825.0629897337158;-2831.475589890291;-11.874607880417443;-3544.4219907518573;-20000.0;16455.578009248144
0.2600000000000002;-249610894.0;-238007580.0;-265029.0;-2834.5710929197903;-2843.3501977707083;-7.155575963007323;-2377.0257965186374;-19583.333333333332;17206.307536814697
0.2640000000000002;-260972079.0;-249409603.0;-201291.0;-2840.296098429962;-2850.5057737337156;-3.389255186074479;-1431.2513775429352;-19166.666666666668;17735.41528912373
0.2680000000000002;-272345374.0;-260825183.0;-146896.0;-2843.3237061345635;-2853.89502891979;-0.5030855101717862;-756.9019261503627;-18583.333333333332;17826.43140718297
0.2720000000000002;-283723814.0;-272242775.0;-102599.0;-2844.6097949992513;-2854.398114429962;1.2249042953985736;-321.52221617195664;-18000.0;17678.477783828042
0.2760000000000002;-295103396.0;-283655467.0;-68347.0;-2844.8953347985025;-2853.1732101345633;2.0021031353121543;-71.38494981279564;-17250.0;17178.615050187203
0.2800000000000002;-306482302.0;-295060151.0;-43245.0;-2844.726339294139;-2851.171106999251;2.1242522007487423;42.24887609086636;-16583.333333333332;16625.5822094242
0.2840000000000002;-317860091.0;-306456338.0;-25964.0;-2844.4471316925196;-2849.0468547985024;1.8279715043631768;69.80190040485468;-15833.333333333334;15903.135233738189
0.2880000000000002;-329236988.0;-317845213.0;-14878.0;-2844.2241527505034;-2847.2188832941392;1.3434636016195327;55.74473550404946;-15166.666666666666;15222.411402170716
0.2920000000000002;-340613392.0;-329228714.0;-8274.0;-2844.100988261779;-2845.8754196925197;0.8569629420162528;30.791122181085484;-14333.333333333334;14364.124455514419
0.2960000000000002;-351989628.0;-340608787.0;-4605.0;-2844.0586489213497;-2845.0184567505034;0.47538848872454764;10.584835107351864;-13666.666666666666;13677.251501774019
0.3000000000000002;-363365871.0;-351986959.0;-2669.0;-2844.060705205291;-2844.543068261779;0.22819534042901068;-0.5140709853321823;-12916.666666666666;12916.152595681335
0.3040000000000002;-374742180.0;-363364218.0;-1653.0;-2844.0772520998935;-2844.31487292135;0.09547971605888961;-4.136723650617569;-12250.0;12245.863276349382
0.3080000000000002;-386118549.0;-374741095.0;-1085.0;-2844.091923838578;-2844.219393205291;0.03798110539764821;-3.6679346711707694;-11583.333333333334;11579.665398662164
0.3120000000000002;-397494948.0;-386117820.0;-729.0;-2844.099616759123;-2844.1814120998934;0.019504261314978066;-1.9232301361853388;-10833.333333333334;10831.410103197148
0.3160000000000002;-408871354.0;-397494467.0;-481.0;-2844.101386129413;-2844.1619078385784;0.01611507945563062;-0.4423425725690322;-10166.666666666666;10166.224324094097
0.32000000000000023;-420247755.0;-408871050.0;-304.0;-2844.1001484636804;-2844.1457927591227;0.015222629709569446;0.3094164331969296;-9416.666666666666;9416.976083099864
0.32400000000000023;-431624149.0;-420247572.0;-183.0;-2844.098327696389;-2844.130570129413;0.012853665732563968;0.4551918228798968;-8750.0;8750.455191822879
0.32800000000000024;-443000538.0;-431624042.0;-107.0;-2844.097157188651;-2844.1177164636806;0.0091167672917436;0.29262693442433374;-8000.0;8000.292626934424
0.33200000000000024;-454376926.0;-443000476.0;-62.0;-2844.0968913949005;-2844.108599696389;0.00549050773770432;0.06644843767844577;-7333.333333333333;7333.3997817710115
0.33600000000000024;-465753316.0;-454376888.0;-38.0;-2844.097284864633;-2844.103109188651;0.002569793750808458;-0.09836743311097962;-6666.666666666667;6666.568299233556
0.34000000000000025;-477129708.0;-465753290.0;-26.0;-2844.0979842600336;-2844.1005393949004;0.0007585302673760452;-0.17484885017893248;-6000.0;5999.825151149821
0.34400000000000025;-488506104.0;-477129689.0;-19.0;-2844.0987294337524;-2844.099780864633;-2.7395400593377417e-05;-0.1862934296923413;-5250.0;5249.813706570308
0.34800000000000025;-499882502.0;-488506088.0;-16.0;-2844.099398365285;-2844.0998082600336;-0.00045717371904174797;-0.16723288320008578;-4583.333333333333;4583.166100450133
0.35200000000000026;-511258902.0;-499882489.0;-13.0;-2844.0999716132824;-2844.1002654337526;-0.0003809315326179785;-0.14331199929529248;-3916.6666666666665;3916.523354667371
0.35600000000000026;-522635305.0;-511258891.0;-11.0;-2844.100478254385;-2844.1006463652852;-0.00038124799721117597;-0.12666027566865523;-3250.0;3249.8733397243313
0.36000000000000026;-534011709.0;-522635295.0;-10.0;-2844.10095542061;-2844.1010276132824;-0.0004106411024622503;-0.11929155618872755;-2583.3333333333335;2583.2140417771448
0.36400000000000027;-545388115.0;-534011700.0;-9.0;-2844.1014290099056;-2844.101438254385;-0.0003811662249972869;-0.11839732394491875;-2083.3333333333335;2083.2149360093886
0.36800000000000027;-556764523.0;-545388107.0;-8.0;-2844.10191035994;-2844.10181942061;-0.00037758929556730436;-0.12033750863338355;-1583.3333333333333;1583.2129958246999
0.3720000000000003;-568140934.0;-556764515.0;-8.0;-2844.102400587926;-2844.1021970099055;-0.0004813500345335342;-0.12255699641627871;-1166.6666666666667;1166.5441096702505
0.3760000000000003;-579517346.0;-568140925.0;-9.0;-2844.1028962993983;-2844.10267835994;-0.0005862279858774855;-0.12392786811687984;-750.0;749.8760721318831
0.3800000000000003;-590893760.0;-579517338.0;-8.0;-2844.103393620922;-2844.103264587926;-0.0003997114722551487;-0.12433038091330673;-500.0;499.8756696190867
0.3840000000000003;-602270176.0;-590893752.0;-8.0;-2844.103889992826;-2844.103664299398;-0.0004973215236532269;-0.12409297607973713;-250.0;249.87590702392026
0.3880000000000003;-613646594.0;-602270168.0;-8.0;-2844.104384370009;-2844.104161620922;-0.0004963719043189485;-0.12359429570096836;-83.33333333333333;83.20973903763236
0.3920000000000003;-625023014.0;-613646586.0;-8.0;-2844.104876711233;-2844.104657992826;-0.0004943771828038734;-0.12308530597238132;0.0;-0.12308530597238132
0.3960000000000003;-636399436.0;-625023006.0;-8.0;-2844.1053673842225;-2844.105152370009;-0.0004923412238895253;-0.1226682473998153;0.0;-0.1226682473998153
0.4000000000000003;-647775860.0;-636399428.0;-8.0;-2844.105856767632;-2844.105644711233;-0.0004906729895992612;-0.1223458523327281;83.33333333333333;-83.45567918566606
0.4040000000000003;-659152286.0;-647775852.0;-8.0;-2844.106345088918;-2844.1061353842224;-0.0004893834093309124;-0.12208032148919301;83.33333333333333;-83.45541365482252
0.4080000000000003;-670528714.0;-659152278.0;-8.0;-2844.106832417931;-2844.1066247676317;-0.000488321285956772;-0.12183225328499248;83.33333333333333;-83.45516558661832
0.4120000000000003;-681905144.0;-670528706.0;-8.0;-2844.107318725966;-2844.1071130889177;-0.0004873290131399699;-0.1215770087128476;0.0;-0.1215770087128476
0.4160000000000003;-693281575.0;-681905136.0;-8.0;-2844.1078039479435;-2844.107600417931;-0.0004863080348513904;-0.12130549441735639;0.0;-0.12130549441735639
0.4200000000000003;-704658009.0;-693281568.0;-7.0;-2844.1082880213007;-2844.1080867259657;-0.00038922197791180224;-0.1210183393141051;0.0;-0.1210183393141051
0.4240000000000003;-716034445.0;-704658001.0;-8.0;-2844.108770900589;-2844.1084759479436;-0.0005800733570140437;-0.12071982212091825;0.0;-0.12071982212091825
0.4280000000000003;-727410882.0;-716034437.0;-8.0;-2844.1092525559716;-2844.1090560213006;-0.000482879288483673;-0.12041384559324797;0.0;-0.12041384559324797
0.43200000000000033;-738787322.0;-727410875.0;-7.0;-2844.1097329678496;-2844.109538900589;-0.0003856553826153686;-0.1201029695039324;0.0;-0.1201029695039324
0.43600000000000033;-750163763.0;-738787314.0;-8.0;-2844.1102121194826;-2844.1099245559717;-0.0005764118777733529;-0.11978790826105978;0.0;-0.11978790826105978
0.44000000000000034;-761540206.0;-750163756.0;-7.0;-2844.1106899930937;-2844.1105009678495;-0.00038315163328661583;-0.11946840277232695;0.0;-0.11946840277232695
0.44400000000000034;-772916652.0;-761540199.0;-7.0;-2844.111166570058;-2844.1108841194828;-0.0004778736110893078;-0.11914424101178156;0.0;-0.11914424101178156
0.44800000000000034;-784293099.0;-772916644.0;-8.0;-2844.1116418290485;-2844.111361993094;-0.0005725769638047495;-0.11881474767960754;0.0;-0.11881474767960754
0.45200000000000035;-795669548.0;-784293091.0;-8.0;-2844.1121157485522;-2844.1119345700577;-0.00047525899071843014;-0.11847987593682774;0.0;-0.11847987593682774
0.45600000000000035;-807045999.0;-795669540.0;-8.0;-2844.1125883063323;-2844.1124098290484;-0.00047391950374731096;-0.11813944502137019;0.0;-0.11813944502137019
0.46000000000000035;-818422451.0;-807045991.0;-8.0;-2844.113059480433;-2844.112883748552;-0.00047255778008548077;-0.11779352519170061;0.0;-0.11779352519170061
0.46400000000000036;-829798906.0;-818422444.0;-7.0;-2844.1135292490276;-2844.113356306332;-0.00037517410100917914;-0.11744214862119406;0.0;-0.11744214862119406
0.46800000000000036;-841175363.0;-829798898.0;-8.0;-2844.1139975905694;-2844.113731480433;-0.0005657685942423996;-0.11708538545462943;0.0;-0.11708538545462943
0.47200000000000036;-852551821.0;-841175355.0;-8.0;-2844.114464483481;-2844.1142972490275;-0.0004683415418185177;-0.11672322784761491;0.0;-0.11672322784761491
0.47600000000000037;-863928281.0;-852551814.0;-7.0;-2844.114929906279;-2844.1147655905693;-0.00037089291163283633;-0.11635569956069958;0.0;-0.11635569956069958
0.48000000000000037;-875304743.0;-863928274.0;-7.0;-2844.1153938375755;-2844.115136483481;-0.0004654227982427983;-0.11598282412705885;0.0;-0.11598282412705885
0.4840000000000004;-886681207.0;-875304736.0;-7.0;-2844.1158562556357;-2844.115601906279;-0.0004639312965082354;-0.11560451503100921;0.0;-0.11560451503100921
0.4880000000000004;-898057673.0;-886681200.0;-7.0;-2844.116317139039;-2844.1160658375757;-0.00046241806012403686;-0.11522085083015554;0.0;-0.11522085083015554
0.4920000000000004;-909434141.0;-898057666.0;-7.0;-2844.116776466492;-2844.116528255636;-0.00046088340332062216;-0.11483186324312555;0.0;-0.11483186324312555
0.4960000000000004;-920810610.0;-909434133.0;-8.0;-2844.117234216039;-2844.116989139039;-0.0005553274527301255;-0.11443738674188353;0.0;-0.11443738674188353
0.5000000000000003;-932187082.0;-920810603.0;-7.0;-2844.1176903665746;-2844.117544466492;-0.0003617495472099108;-0.114037633920816;0.0;-0.114037633920816
0.5040000000000003;-943563555.0;-932187074.0;-8.0;-2844.1181448964267;-2844.117906216039;-0.0005521505354408873;-0.11363246301243635;0.0;-0.11363246301243635
0.5080000000000003;-954940030.0;-943563547.0;-8.0;-2844.118597784239;-2844.1184583665745;-0.0004545298520497454;-0.11322195302909677;0.0;-0.11322195302909677
0.5120000000000003;-966316506.0;-954940022.0;-8.0;-2844.1190490085282;-2844.1189128964265;-0.00045288781211638707;-0.11280607236585638;0.0;-0.11280607236585638
0.5160000000000003;-977692985.0;-966316499.0;-7.0;-2844.119498547842;-2844.1193657842387;-0.0003552242897058022;-0.11238482841235964;0.0;-0.11238482841235964
0.5200000000000004;-989069465.0;-977692977.0;-8.0;-2844.1199463808543;-2844.1197210085284;-0.0005455393134070619;-0.11195825311460794;0.0;-0.11195825311460794
0.5240000000000004;-1000445947.0;-989069458.0;-7.0;-2844.1203924861143;-2844.1202665478418;-0.00035183301270080847;-0.11152631498134724;0.0;-0.11152631498134724
