Zeit[sec];Sollposition[°];Istposition[°];Positionsschleppfehler[°];Sollgeschwindigkeit[°/s];Istgeschwindigkeit[°/s];Geschwindigkeitsdifferenz[°/s];Sollbeschleunigung[°/s*s];Istbeschleunigung[°/s*s];Beschleunigungsdifferenz[°/s*s]
0.0;0.0;-4.0;4.0;-0.0;0.00023999999999999998;0.0;0.0;0.0;0.0
0.004;0.0;-4.0;4.0;-0.0;0.00023999999999999998;0.0;0.0;0.0;0.0
0.008;0.0;-4.0;4.0;-0.0;0.00023999999999999998;0.0;0.0;0.0;0.0
0.012;0.0;-4.0;4.0;-0.0;0.00023999999999999998;0.0;0.0;0.0;0.0
0.016;0.0;-4.0;4.0;-0.0;0.00023999999999999998;0.0;0.0;0.0;0.0
0.02;0.0;-4.0;4.0;-0.0;0.00023999999999999998;0.0;0.0;0.0;0.0
0.024;0.0;-4.0;4.0;-0.0;0.00023999999999999998;0.0;0.0;0.0;0.0
0.028;0.0;-4.0;4.0;-0.0;0.00023999999999999998;0.0;0.0;0.0;0.0
0.032;0.0;-4.0;4.0;-0.0;0.00023999999999999998;0.0;0.0;0.0;0.0
0.036000000000000004;0.0;-4.0;4.0;-0.0;0.00023999999999999998;0.0;0.0;0.0;0.0
0.04000000000000001;0.0;-4.0;4.0;-0.0;0.00023999999999999998;0.0;0.0;0.0;0.0
0.04400000000000001;0.0;-4.0;4.0;-0.0;0.00023999999999999998;0.0;0.0;0.0;0.0
0.048000000000000015;0.0;-4.0;4.0;-0.0;0.00023999999999999998;0.0;0.0;0.0;0.0
0.05200000000000002;368.0;-4.0;4.0;0.09205652747279752;0.00023999999999999998;0.0;23.01413186819938;0.0;23.01413186819938
0.05600000000000002;4037.0;-4.0;372.0;0.9174052388658521;0.00023999999999999998;0.11413652747279752;206.33717784826365;0.0;206.33717784826365
0.060000000000000026;22074.0;453.0;3584.0;4.5092327792095315;0.11437652747279753;1.0180687113930547;897.9568850859198;0.0;897.9568850859198
0.06400000000000003;81692.0;4982.0;17092.0;14.90455186185608;1.1324452388658521;4.4023075403436795;2598.829770661637;0.0;2598.829770661637
0.06800000000000003;232934.0;27121.0;54571.0;37.81037037112649;5.534752779209532;12.644059082646548;5726.454627317602;0.0;5726.454627317602
0.07200000000000004;549253.0;99836.0;133098.0;79.07985910565385;18.17881186185608;27.61743850927041;10317.372183631842;0.0;10317.372183631842
0.07600000000000004;1120577.0;283021.0;266232.0;142.8308166618208;45.79625037112649;49.257528734527355;15937.739389041735;166.66666666666666;15771.072722375067
0.08000000000000004;2044333.0;663236.0;457341.0;230.93906158588683;95.05377910565385;75.21749755616695;22027.06123101651;416.6666666666667;21610.394564349845
0.08400000000000005;3420905.0;1344321.0;700012.0;344.14295571595943;170.2712766618208;102.66850492406601;28300.97353251815;833.3333333333334;27467.640199184818
0.08800000000000005;5352478.0;2436080.0;984825.0;482.893164336728;272.9397815858868;130.2926741300726;34687.552155192134;1416.6666666666667;33270.88548852547
0.09200000000000005;7939828.0;4049009.0;1303469.0;646.8376171541271;403.2324557159594;157.86884862076852;40986.11320434978;2166.6666666666665;38819.446537683114
0.09600000000000006;11275880.0;6293414.0;1646414.0;834.0129846650426;561.1013043367279;184.52115281739918;46793.84187772888;3250.0;43543.84187772888
0.10000000000000006;15439752.0;9275903.0;1999977.0;1040.9679214895116;745.6224571541271;208.38914751091545;51738.734206117246;4416.666666666667;47322.067539450574
0.10400000000000006;20493141.0;13091949.0;2347803.0;1263.3471382399225;954.0116046650426;227.82449682446895;55594.804187602735;5916.666666666667;49678.13752093606
0.10800000000000007;26478315.0;17819293.0;2673848.0;1496.293299904589;1181.8361014895115;241.94191675041088;58236.54041616663;7500.0;50736.54041616663
0.11200000000000007;33418709.0;23514405.0;2963910.0;1735.098583798001;1423.7780182399224;250.34988166466655;59701.32097335301;9250.0;50451.32097335301
0.11600000000000008;41323116.0;30210916.0;3207793.0;1976.101526194099;1674.127899904589;253.4382638934121;60250.7355990245;11166.666666666666;49084.068932357826
0.12000000000000008;50191670.0;37921180.0;3401936.0;2217.1383901457184;1927.566163798001;252.6515223960978;60259.21598790484;13083.333333333334;47175.882654571506
0.12400000000000008;60021041.0;46642050.0;3549620.0;2457.342669297385;2180.217686194099;249.89790395161936;60051.06978791662;15083.333333333334;44967.73645458328
0.12800000000000009;70807409.0;56362512.0;3658529.0;2696.5919228477796;2430.115590145718;246.73881915166658;59812.31338759869;17000.0;42812.31338759869
0.1320000000000001;82547294.0;67069929.0;3737480.0;2934.971028945511;2676.854409297385;243.9863135503947;59594.77652443286;18916.666666666668;40678.10985776619
0.1360000000000001;95236224.0;78753291.0;3794003.0;3172.23256016697;2920.8407228477795;241.77048609773146;59315.38280536472;20916.666666666668;38398.71613869805
0.1400000000000001;108863678.0;91403735.0;3832489.0;3406.8631516391574;3162.611208945511;239.57069122145913;58657.647868046864;22833.333333333332;35824.314534713536
0.1440000000000001;123404934.0;105012462.0;3851216.0;3635.313837515992;3402.18190016697;235.7542114721873;57112.67146920864;24750.0;32362.671469208635
0.1480000000000001;138815031.0;119564206.0;3840728.0;3852.5240206315952;3637.9361116391574;227.82140587683443;54302.54577890082;26583.333333333332;27719.21244556749
0.1520000000000001;155028097.0;135027236.0;3787795.0;4053.2663071657976;3865.757517515992;214.0342031156033;50185.57163355058;28333.333333333332;21852.23830021725
0.1560000000000001;171960440.0;151346402.0;3681695.0;4233.085533250133;4079.791720631595;194.37628653420234;44954.80652108393;30166.666666666668;14788.139854417255
0.16000000000000011;189515324.0;168443074.0;3517366.0;4388.720809845279;4274.1680071657975;169.95948608433537;38908.819148786504;31750.0;7158.819148786506
0.16400000000000012;207588454.0;186219583.0;3295741.0;4518.282468564361;4444.127493250133;142.33777659514635;32390.4146797704;33333.333333333336;-942.9186535629342
0.16800000000000012;226072937.0;204565444.0;3023010.0;4621.1204116186245;4586.465269845279;113.19779871908213;25709.485763565906;34666.666666666664;-8957.180903100756
0.17200000000000013;244863572.0;223364096.0;2708841.0;4697.658516203012;4699.663068564361;83.98780305426317;19134.52614609696;35833.333333333336;-16698.807187236376
0.17600000000000013;263862789.0;242498699.0;2364873.0;4749.803997929254;4783.6508716186245;55.90002458438812;13036.3704315605;36666.666666666664;-23630.296235106165
0.18000000000000013;282988538.0;261856902.0;2005887.0;4781.437150504673;4839.550896203013;30.60632172624173;7908.288143854634;37250.0;-29341.711856145368
0.18400000000000014;302179748.0;281337530.0;1651008.0;4797.8023116207505;4870.157217929254;10.340412575418668;4091.290279019404;37666.666666666664;-33575.37638764726
0.18800000000000014;321396491.0;300859520.0;1320228.0;4804.185370996859;4880.497630504673;-3.481638883922642;1595.7648440271441;38000.0;-36404.235155972856
0.19200000000000014;340616615.0;320367583.0;1028908.0;4805.030711149316;4877.01599162075;-11.096140623891188;211.33503811415721;38083.333333333336;-37871.99829521918
0.19600000000000015;359830949.0;339831262.0;785353.0;4803.583446740931;4865.919850996859;-13.767959847543352;-361.8161020960997;38083.333333333336;-38445.149435429434
0.20000000000000015;379038133.0;359239869.0;591080.0;4801.795695820231;4852.151891149316;-13.103644408384753;-446.9377301750228;37916.666666666664;-38363.604396841685
0.20400000000000015;398240209.0;378596061.0;442072.0;4800.518707400166;4839.048246740931;-10.728230920699389;-319.24710501630216;37750.0;-38069.2471050163
0.20800000000000016;417439779.0;397909341.0;330868.0;4799.892407400541;4828.320015820232;-7.949228420065992;-156.5749999062973;37416.666666666664;-37573.24166657296
0.21200000000000016;436638713.0;417190824.0;248955.0;4799.733100570469;4820.370787400166;-5.5410799996252535;-39.826707517931936;36916.666666666664;-36956.493374184596
0.21600000000000016;455837910.0;436450142.0;188571.0;4799.799242244385;4814.82970740054;-3.7823468300712193;16.535418478952124;36250.0;-36233.464581521046
0.22000000000000017;475037577.0;455694331.0;143579.0;4799.9164400892605;4811.047360570469;-2.633378326084312;29.299461218897704;35416.666666666664;-35387.367205447765
0.22400000000000017;494237583.0;474927986.0;109591.0;4800.001354384499;4808.413982244385;-1.9220821551243716;21.22857380959431;34416.666666666664;-34395.43809285707
0.22800000000000017;513437732.0;494153953.0;83630.0;4800.036816949643;4806.4919000892605;-1.4727457047620192;8.865641286092796;33166.666666666664;-33157.80102538057
0.23200000000000018;532637881.0;513374029.0;63703.0;4800.037108373406;4805.0191543844985;-1.1601574348551367;0.07285594074346591;31666.666666666668;-31666.593810725924
0.23600000000000018;551837972.0;532589464.0;48417.0;4800.02255314411;4803.858996949643;-0.9168685762369932;-3.638807324023219;30000.0;-30003.638807324023
0.24000000000000019;571038003.0;551801232.0;36740.0;4800.007469253518;4802.942128373406;-0.7151752292966194;-3.7709726479988603;28250.0;-28253.770972648
0.2440000000000002;590237996.0;571010139.0;27864.0;4799.997953965789;4802.22695314411;-0.5476438905916439;-2.3788219323250814;26333.333333333332;-26335.712155265657
0.2480000000000002;609437974.0;590216856.0;21140.0;4799.9943380907;4801.679309253518;-0.4129552877293463;-0.9039687722633971;24416.666666666668;-24417.570635438933
0.25200000000000017;628637953.0;609421921.0;16053.0;4799.9944777327555;4801.266353965789;-0.3088358750892439;0.03491051393211819;22416.666666666668;-22416.631756152736
0.25600000000000017;647837938.0;628625751.0;12202.0;4799.996060847858;4800.9575180906995;-0.23092035794434196;0.39577877555529994;20500.0;-20499.604221224443
0.2600000000000002;667037929.0;647828657.0;9281.0;4799.997604235288;4800.726597732755;-0.173676884897759;0.38584685762543813;18583.333333333332;-18582.947486475707
0.2640000000000002;686237924.0;667030868.0;7061.0;4799.998531986856;4800.552920847857;-0.13165661256880412;0.23193789184006164;16583.333333333332;-16583.101395441492
0.2680000000000002;705437921.0;686232553.0;5371.0;4799.998854179956;4800.421264235289;-0.10047224843310687;0.0805482750365627;14750.0;-14749.919451724963
0.2720000000000002;724637917.0;705433836.0;4085.0;4799.998810549903;4800.3207919868555;-0.07683780689967534;-0.010907513114943868;12750.0;-12750.010907513115
0.2760000000000002;743837912.0;724634811.0;3106.0;4799.998638934052;4800.243954179956;-0.058783630052857916;-0.042903962821583264;11000.0;-11000.042903962822
0.2800000000000002;763037907.0;743835551.0;2361.0;4799.998483729574;4800.185170549903;-0.04487161585075228;-0.038801119444542564;9083.333333333334;-9083.372134452778
0.2840000000000002;782237901.0;763036112.0;1795.0;4799.99839585785;4800.140298934052;-0.03411520447843941;-0.021967931161270826;7333.333333333333;-7333.355301264494
0.2880000000000002;801437896.0;782236536.0;1365.0;4799.998369205248;4800.106183729574;-0.02588787172408047;-0.006663150315944222;5666.666666666667;-5666.673329816983
0.2920000000000002;820637890.0;801436857.0;1039.0;4799.998377378446;4800.08029585785;-0.019586652600992238;0.0020432994460861664;4166.666666666667;-4166.664623367221
0.2960000000000002;839837885.0;820637099.0;791.0;4799.998396241584;4800.060709205249;-0.014871826802846044;0.004715784371001064;2916.6666666666665;-2916.6619508822955
0.3000000000000002;859037879.0;839837282.0;603.0;4799.998411997795;4800.045837378446;-0.01126113686223107;0.003939052930945763;1750.0;-1749.996060947069
0.3040000000000002;878237874.0;859037420.0;459.0;4799.99842036259;4800.034576241584;-0.008624243788290187;0.002091198666676064;833.3333333333334;-833.3312421346667
0.3080000000000002;897437869.0;878237523.0;351.0;4799.998422516113;4800.025951997795;-0.006471635205343773;0.0005383808456826955;166.66666666666666;-166.66612828582097
0.3120000000000002;916637863.0;897437600.0;269.0;4799.998421354541;4800.01948036259;-0.004917846476928389;-0.00029039301807642914;-250.0;249.99970960698192
0.3160000000000002;935837858.0;916637658.0;205.0;4799.99841932608;4800.014562516113;-0.0038411615714721847;-0.000507115373693523;-500.0;499.9994928846263
0.32000000000000023;955037852.0;935837700.0;158.0;4799.998417744677;4800.010721354542;-0.0028220284621056635;-0.00039535075302410405;-583.3333333333334;583.3329379825803
0.32400000000000023;974237847.0;955037731.0;121.0;4799.998416959048;4800.0078993260795;-0.002221581402409356;-0.0001964071998372674;-583.3333333333334;583.3331369261335
0.32800000000000024;993437841.0;974237753.0;94.0;4799.99841679719;4800.005677744677;-0.0016207856288019684;-4.0464556150254793e-05;-500.0;499.99995953544385
0.33200000000000024;1012637836.0;993437769.0;72.0;4799.998416946866;4800.004056959048;-0.0013201618585299002;3.741911314136814e-05;-416.6666666666667;416.6667040857798
0.33600000000000024;1031837831.0;1012637779.0;57.0;4799.998417162158;4800.00273679719;-0.0008998503235488897;5.382298695622012e-05;-333.3333333333333;333.33338715632027
0.34000000000000025;1051037825.0;1031837786.0;45.0;4799.998417319403;4800.001836946866;-0.0007197847080533393;3.931131686840672e-05;-250.0;250.00003931131687
0.34400000000000025;1070237820.0;1051037790.0;35.0;4799.998417392239;4800.001117162158;-0.0005998427550366614;1.8208993424195796e-05;-166.66666666666666;166.66668487566008
0.34800000000000025;1089437814.0;1070237792.0;28.0;4799.998417402861;4800.000517319403;-0.0004199271634206525;2.6554971555015072e-06;-83.33333333333333;83.33333598883048
0.35200000000000026;1108637809.0;1089437792.0;22.0;4799.998417384638;4800.00009739224;-0.00035998937801196007;-4.555886334856041e-06;-83.33333333333333;83.333328777447
0.35600000000000026;1127837804.0;1108637790.0;19.0;4799.998417361992;4799.999737402862;-0.00018001822354563046;-5.661377144861035e-06;-83.33333333333333;83.33332767195618
0.36000000000000026;1147037798.0;1127837788.0;16.0;4799.9984173465355;4799.999557384638;-0.00018002264550887048;-3.864215614157729e-06;-83.33333333333333;83.33332946911771
0.36400000000000027;1166237793.0;1147037785.0;13.0;4799.998417339983;4799.999377361993;-0.00018001545686274767;-1.638227331568487e-06;0.0;-1.638227331568487e-06
0.36800000000000027;1185437787.0;1166237781.0;12.0;4799.998417339284;4799.999197346536;-6.000655321258819e-05;-1.7462298274040222e-07;0.0;-1.7462298274040222e-07
0.3720000000000003;1204637782.0;1185437777.0;10.0;4799.998417341446;4799.999137339983;-0.00012000069818896009;5.404672265285626e-07;0.0;5.404672265285626e-07
0.3760000000000003;1223837776.0;1204637773.0;9.0;4799.998417343926;4799.999017339284;-5.99978384343558e-05;6.200480129336938e-07;0.0;6.200480129336938e-07
0.3800000000000003;1243037771.0;1223837768.0;8.0;4799.998417345326;4799.998957341446;-5.999752011121018e-05;3.4992808650713414e-07;0.0;3.4992808650713414e-07
0.3840000000000003;1262237766.0;1243037763.0;8.0;4799.998417345899;4799.998897343926;1.3997123460285366e-09;1.432454155292362e-07;0.0;1.432454155292362e-07
0.3880000000000003;1281437760.0;1262237758.0;8.0;4799.998417345962;4799.9988973453255;5.729816621169448e-10;1.5688783605583012e-08;0.0;1.5688783605583012e-08
0.3920000000000003;1300637755.0;1281437753.0;7.0;4799.998417345644;4799.9988973458985;-5.999993663863279e-05;-7.935341272968799e-08;0.0;-7.935341272968799e-08
0.3960000000000003;1319837749.0;1300637748.0;7.0;4799.998417345453;4799.998837345962;-3.1741365091875196e-10;-4.774847184307873e-08;0.0;-4.774847184307873e-08
0.4000000000000003;1339037744.0;1319837743.0;6.0;4799.99841734539;4799.9988373456445;-6.0000191297149286e-05;-1.5688783605583012e-08;0.0;-1.5688783605583012e-08
0.4040000000000003;1358237739.0;1339037738.0;6.0;4799.9984173451985;4799.998777345453;-6.275513442233205e-11;-4.7975845518521965e-08;0.0;-4.7975845518521965e-08
0.4080000000000003;1377437733.0;1358237733.0;6.0;4799.998417345262;4799.99877734539;-1.9190338207408786e-10;1.5916157281026244e-08;0.0;1.5916157281026244e-08
0.4120000000000003;1396637728.0;1377437728.0;5.0;4799.99841734539;4799.9987773451985;-5.999993663863279e-05;3.205968823749572e-08;0.0;3.205968823749572e-08
0.4160000000000003;1415837722.0;1396637722.0;6.0;4799.998417345262;4799.998717345262;6.000012854201486e-05;-3.205968823749572e-08;0.0;-3.205968823749572e-08
0.4200000000000003;1435037717.0;1415837717.0;5.0;4799.998417345262;4799.99877734539;-6.000012854201486e-05;0.0;0.0;0.0
0.4240000000000003;1454237711.0;1435037711.0;6.0;4799.998417345326;4799.998717345262;6.000000030326191e-05;1.5916157281026244e-08;0.0;1.5916157281026244e-08
0.4280000000000003;1473437706.0;1454237706.0;5.0;4799.998417345453;4799.998777345262;-5.999993663863279e-05;3.183231456205249e-08;0.0;3.183231456205249e-08
0.43200000000000033;1492637701.0;1473437700.0;6.0;4799.998417345326;4799.9987173453255;6.000012763252016e-05;-3.183231456205249e-08;0.0;-3.183231456205249e-08
0.43600000000000033;1511837695.0;1492637695.0;6.0;4799.998417345262;4799.998777345453;-1.2732925824820995e-10;-1.5916157281026244e-08;0.0;-1.5916157281026244e-08
0.44000000000000034;1531037690.0;1511837690.0;5.0;4799.998417345262;4799.998777345326;-6.000006396789104e-05;0.0;0.0;0.0
0.44400000000000034;1550237684.0;1531037684.0;6.0;4799.998417345326;4799.998717345262;6.000000030326191e-05;1.5916157281026244e-08;0.0;1.5916157281026244e-08
0.44800000000000034;1569437679.0;1550237679.0;5.0;4799.998417345262;4799.998777345262;-5.999993663863279e-05;-1.5916157281026244e-08;-83.33333333333333;83.33333331741717
0.45200000000000035;1588637673.0;1569437673.0;6.0;4799.998417345453;4799.9987173453255;5.999993663863279e-05;4.774847184307873e-08;-83.33333333333333;83.3333333810818
0.45600000000000035;1607837668.0;1588637668.0;5.0;4799.998417345326;4799.998777345262;-5.999980930937454e-05;-3.183231456205249e-08;-83.33333333333333;83.33333330150101
0.46000000000000035;1627037663.0;1607837662.0;6.0;4799.998417345262;4799.998717345453;5.9999872974003665e-05;-1.5916157281026244e-08;0.0;-1.5916157281026244e-08
0.46400000000000036;1646237657.0;1627037657.0;6.0;4799.998417345518;4799.998777345326;-6.366462912410498e-11;6.389200279954821e-08;0.0;6.389200279954821e-08
0.46800000000000036;1665437652.0;1646237652.0;5.0;4799.998417345262;4799.998777345262;-5.9999744735250715e-05;-6.389200279954821e-08;0.0;-6.389200279954821e-08
0.47200000000000036;1684637646.0;1665437646.0;6.0;4799.998417345262;4799.998717345517;5.9999744735250715e-05;0.0;0.0;0.0
0.47600000000000037;1703837641.0;1684637641.0;5.0;4799.998417345326;4799.998777345262;-6.000000030326191e-05;1.5916157281026244e-08;0.0;1.5916157281026244e-08
0.48000000000000037;1723037636.0;1703837635.0;6.0;4799.99841734539;4799.998717345262;6.000006396789104e-05;1.6143530956469476e-08;0.0;1.6143530956469476e-08
0.4840000000000004;1742237630.0;1723037630.0;6.0;4799.998417345262;4799.998777345326;6.45741238258779e-11;-3.205968823749572e-08;0.0;-3.205968823749572e-08
0.4880000000000004;1761437625.0;1742237625.0;5.0;4799.998417345326;4799.99877734539;-6.000012854201486e-05;1.5916157281026244e-08;0.0;1.5916157281026244e-08
0.4920000000000004;1780637619.0;1761437619.0;6.0;4799.998417345262;4799.998717345262;6.000006396789104e-05;-1.5916157281026244e-08;0.0;-1.5916157281026244e-08
0.4960000000000004;1799837614.0;1780637614.0;5.0;4799.998417345262;4799.998777345326;-6.000006396789104e-05;0.0;0.0;0.0
0.5000000000000003;1819037608.0;1799837608.0;6.0;4799.998417345453;4799.998717345262;6.000000030326191e-05;4.774847184307873e-08;0.0;4.774847184307873e-08
0.5040000000000003;1838237603.0;1819037603.0;5.0;4799.998417345262;4799.998777345262;-5.999980930937454e-05;-4.774847184307873e-08;0.0;-4.774847184307873e-08
0.5080000000000003;1857437598.0;1838237597.0;6.0;4799.99841734539;4799.998717345453;5.999980930937454e-05;3.205968823749572e-08;0.0;3.205968823749572e-08
0.5120000000000003;1876637592.0;1857437592.0;6.0;4799.998417345262;4799.998777345262;1.2823875294998288e-10;-3.205968823749572e-08;0.0;-3.205968823749572e-08
0.5160000000000003;1895837587.0;1876637587.0;5.0;4799.998417345453;4799.99877734539;-6.000012854201486e-05;4.774847184307873e-08;0.0;4.774847184307873e-08
0.5200000000000004;1915037581.0;1895837581.0;6.0;4799.998417345262;4799.998717345262;6.0000191297149286e-05;-4.774847184307873e-08;0.0;-4.774847184307873e-08
0.5240000000000004;1934237576.0;1915037576.0;5.0;4799.998417345262;4799.998777345453;-6.0000191297149286e-05;0.0;0.0;0.0
