Zeit[sec];Sollposition[°];Istposition[°];Positionsschleppfehler[°];Sollgeschwindigkeit[°/s];Istgeschwindigkeit[°/s];Geschwindigkeitsdifferenz[°/s];Sollbeschleunigung[°/s*s];Istbeschleunigung[°/s*s];Beschleunigungsdifferenz[°/s*s]
0.0;0.0;2.0;-2.0;-0.0;-0.000192;0.0;0.0;0.0;0.0
0.004;0.0;2.0;-2.0;-0.0;-0.000192;0.0;0.0;0.0;0.0
0.008;0.0;2.0;-2.0;-0.0;-0.000192;0.0;0.0;0.0;0.0
0.012;0.0;2.0;-2.0;-0.0;-0.000192;0.0;0.0;0.0;0.0
0.016;0.0;2.0;-2.0;-0.0;-0.000192;0.0;0.0;0.0;0.0
0.02;0.0;2.0;-2.0;-0.0;-0.000192;0.0;0.0;0.0;0.0
0.024;0.0;2.0;-2.0;-0.0;-0.000192;0.0;0.0;0.0;0.0
0.028;0.0;2.0;-2.0;-0.0;-0.000192;0.0;0.0;0.0;0.0
0.032;0.0;2.0;-2.0;-0.0;-0.000192;0.0;0.0;0.0;0.0
0.036000000000000004;0.0;2.0;-2.0;-0.0;-0.000192;0.0;0.0;0.0;0.0
0.04000000000000001;0.0;2.0;-2.0;-0.0;-0.000192;0.0;0.0;0.0;0.0
0.04400000000000001;0.0;2.0;-2.0;-0.0;-0.000192;0.0;0.0;0.0;0.0
0.048000000000000015;0.0;2.0;-2.0;-0.0;-0.000192;0.0;0.0;0.0;0.0
0.05200000000000002;0.0;2.0;-2.0;-4.3545562972424124e-24;-0.000192;0.0;-1.088639074310603e-21;0.0;-1.088639074310603e-21
0.05600000000000002;0.0;2.0;-2.0;-3.4686970982608526e-23;-0.000192;0.0;-7.583103671341529e-21;0.0;-7.583103671341529e-21
0.060000000000000026;0.0;2.0;-2.0;-1.352174960203932e-22;-0.000192;0.0;-2.5132631259446168e-20;0.0;-2.5132631259446168e-20
0.06400000000000003;0.0;2.0;-2.0;-3.434493339008069e-22;-0.000192;0.0;-5.205795947010343e-20;0.0;-5.205795947010343e-20
0.06800000000000003;0.0;2.0;-2.0;-6.3600527314003625e-22;-0.000192;0.0;-7.313898480980734e-20;0.0;-7.313898480980734e-20
0.07200000000000004;67047.0;2.0;-2.0;16.76184563360846;-0.000192;0.0;4190.461408402115;0.0;4190.461408402115
0.07600000000000004;98255.0;2.0;67045.0;7.802119313537887;-0.000192;23.19835763360846;-2239.9315800176432;0.0;-2239.9315800176432
0.08000000000000004;130630.0;92794.0;5461.0;8.093740831649601;23.19816563360846;-14.871790320070575;72.90537952792863;0.0;72.90537952792863
0.08400000000000005;163236.0;126099.0;4531.0;8.151539742364916;8.326375313537886;0.20234151811171586;14.449727678828683;0.0;14.449727678828683
0.08800000000000005;195438.0;160213.0;3023.0;8.05027429878757;8.528716831649602;-0.08696908928468616;-25.31636089433631;83.33333333333333;-108.64969422766964
0.09200000000000005;225299.0;193979.0;1459.0;7.465328497521498;8.441747742364916;-0.2514094435773444;-146.2364503165181;83.33333333333333;-229.56978364985144
0.09600000000000006;250305.0;226740.0;-1441.0;6.251465356600391;8.190338298787571;-0.8633458012660729;-303.4657852302769;83.33333333333333;-386.79911856361025
0.10000000000000006;268690.0;256047.0;-5742.0;4.596334084789343;7.326992497521498;-1.6267591409211075;-413.78281795276183;83.33333333333333;-497.11615128609515
0.10400000000000006;279241.0;278847.0;-10157.0;2.6376381324440854;5.700233356600391;-2.0789712718110476;-489.67398808631447;83.33333333333333;-573.0073214196478
0.10800000000000007;281314.0;293332.0;-14091.0;0.518427362723534;3.6212620847893433;-2.3363599523452576;-529.8026924301379;83.33333333333333;-613.1360257634711
0.11200000000000007;275508.0;298471.0;-17157.0;-1.4516178365160832;1.2849021324440855;-2.4135467697205515;-492.5112998099043;0.0;-492.5112998099043
0.11600000000000008;263409.0;293957.0;-18449.0;-3.024668446134226;-1.1286446372764662;-2.0940771992396168;-393.26265240453574;0.0;-393.26265240453574
0.12000000000000008;246777.0;281067.0;-17658.0;-4.157972329182268;-3.222721836516083;-1.4971146096181434;-283.3259707620105;0.0;-283.3259707620105
0.12400000000000008;226915.0;262188.0;-15411.0;-4.965471219475163;-4.719836446134226;-0.9175918830480416;-201.8747225732238;0.0;-201.8747225732238
0.12800000000000009;204362.0;239639.0;-12724.0;-5.638338885775938;-5.637428329182268;-0.5495468902928957;-168.21691657519366;-83.33333333333333;-84.88358324186034
0.1320000000000001;179124.0;214892.0;-10530.0;-6.309419152209306;-6.186975219475164;-0.4622436663007745;-167.77006660834192;-83.33333333333333;-84.4367332750086
0.1360000000000001;151022.0;188296.0;-9172.0;-7.0257190998686765;-6.649218885775938;-0.5407122664333679;-179.0749869148427;-83.33333333333333;-95.74165358150937
0.1400000000000001;119734.0;159537.0;-8515.0;-7.8218519253395;-7.189931152209306;-0.6532279476593708;-199.03320636770582;0.0;-199.03320636770582
0.1440000000000001;85092.0;128165.0;-8431.0;-8.66055475480254;-7.843159099868677;-0.7880688254708232;-209.67570736576002;0.0;-209.67570736576002
0.1480000000000001;47470.0;93641.0;-8549.0;-9.405573608097898;-8.6312279253395;-0.850030829463039;-186.25471332383947;-83.33333333333333;-102.92137999050614
0.1520000000000001;0.0;55716.0;-8246.0;-11.867525996625686;-9.481258754802539;-0.7159308532953581;-615.4880971319469;-83.33333333333333;-532.1547637986137
0.1560000000000001;0.0;14928.0;-14928.0;1.304863500181461e-26;-10.197189608097897;-3.103424388527788;2966.8814991564213;-83.33333333333333;3050.214832489755
0.16000000000000011;-73685.0;-38274.0;38274.0;-18.421445641550974;-13.300613996625685;16.974917996625685;-4605.3614103877435;0.0;-4605.3614103877435
0.16400000000000012;-112808.0;-23577.0;-50108.0;-9.780604421211372;3.6743040000000002;-26.906117641550974;2160.2103050849005;0.0;2160.2103050849005
0.16800000000000012;-149299.0;-116504.0;3696.0;-9.122781926869441;-23.231813641550975;13.806025220339603;164.4556235854826;0.0;164.4556235854826
0.17200000000000013;-182323.0;-154207.0;4908.0;-8.255941749229532;-9.425788421211372;0.7741744943419313;216.71004440997743;-83.33333333333333;300.04337774331077
0.17600000000000013;-211205.0;-188813.0;6490.0;-7.220555281217636;-8.651613926869441;1.0187121776399088;258.84661700297397;-83.33333333333333;342.1799503363073
0.18000000000000013;-235574.0;-219344.0;8139.0;-6.092288558096928;-7.632901749229532;1.193690468011896;282.066680780177;-83.33333333333333;365.4000141135104
0.18400000000000014;-255535.0;-245100.0;9526.0;-4.990145114303773;-6.439211281217636;1.2614187231207081;275.53586094828876;0.0;275.53586094828876
0.18800000000000014;-271472.0;-265811.0;10276.0;-3.984336177687427;-5.177792558096928;1.174143443793155;251.45223415408645;-83.33333333333333;334.78556748741977
0.19200000000000014;-283909.0;-281825.0;10353.0;-3.109149266039048;-4.003649114303773;1.0132009366163461;218.7967279120947;-83.33333333333333;302.130061245428
0.19600000000000015;-293477.0;-293786.0;9877.0;-2.3920351738476;-2.9904481776874268;0.8294909116483788;179.27852304786208;-83.33333333333333;262.6118563811954
0.20000000000000015;-300785.0;-302429.0;8952.0;-1.8270744436910544;-2.160957266039048;0.6283140921914483;141.24018253913633;0.0;141.24018253913633
0.20400000000000015;-306308.0;-308559.0;7774.0;-1.3808884595722286;-1.5326431738475996;0.4518727301565453;111.54649602970646;0.0;111.54649602970646
0.20800000000000016;-310374.0;-312882.0;6574.0;-1.0163484502831746;-1.0807704436910543;0.33098598411882574;91.13500232226352;-83.33333333333333;174.46833565559683
0.21200000000000016;-313180.0;-315881.0;5507.0;-0.7015817193872863;-0.7497844595722286;0.2621080092890541;78.69168272397206;-83.33333333333333;162.02501605730538
0.21600000000000016;-314845.0;-317831.0;4651.0;-0.4160762093692219;-0.4876764502831745;0.23259073089588822;71.3763775045161;-83.33333333333333;154.70971083784943
0.22000000000000017;-315444.0;-318851.0;4006.0;-0.14980412657627754;-0.2550857193872863;0.22358551001806443;66.5680206982361;-83.33333333333333;149.9013540315694
0.22400000000000017;-315030.0;-318977.0;3533.0;0.1035053560803424;-0.03150020936922188;0.22086408279294437;63.327370664154984;-83.33333333333333;146.66070399748833
0.22800000000000017;-313632.0;-318220.0;3190.0;0.3493418231059091;0.1893638734237225;0.22038148265661991;61.45911675639167;-83.33333333333333;144.792450089725
0.23200000000000018;-311260.0;-316582.0;2950.0;0.5930137198707562;0.4097453560803424;0.2227964670255667;60.91797419121178;0.0;60.91797419121178
0.23600000000000018;-307895.0;-314052.0;2792.0;0.8413624614930376;0.6325418231059091;0.22850389676484706;62.087185405570345;0.0;62.087185405570345
0.24000000000000019;-303493.0;-310608.0;2713.0;1.1005149267976135;0.8610457198707562;0.24076474162228134;64.78811632614398;0.0;64.78811632614398
0.2440000000000002;-297992.0;-306201.0;2708.0;1.3750771342017447;1.1018104614930375;0.258672465304576;68.6405518510328;0.0;68.6405518510328
0.2480000000000002;-291297.0;-300760.0;2768.0;1.6739260643355511;1.3604829267976135;0.28032220740413116;74.71223253345161;0.0;74.71223253345161
0.25200000000000017;-283283.0;-294197.0;2900.0;2.0033425920802923;1.6408051342017447;0.31152093013380644;82.3541319361853;0.0;82.3541319361853
0.25600000000000017;-273774.0;-286388.0;3105.0;2.377339868199131;1.9523260643355511;0.3490965277447413;93.49931902970965;0.0;93.49931902970965
0.2600000000000002;-262396.0;-277183.0;3409.0;2.844473818778634;2.3014225920802924;0.40318127611883847;116.78348764487578;83.33333333333333;33.450154311542455
0.2640000000000002;-248643.0;-266365.0;3969.0;3.438336980878833;2.704603868199131;0.5208939505795032;148.46579052504973;83.33333333333333;65.13245719171638
0.2680000000000002;-232013.0;-253464.0;4821.0;4.157401726082779;3.225497818778634;0.6756551621001989;179.7661863009865;83.33333333333333;96.43285296765318
0.2720000000000002;-211893.0;-237860.0;5847.0;5.0300973290011965;3.901152980878833;0.817560745203946;218.1739007296044;83.33333333333333;134.84056739627107
0.2760000000000002;-187666.0;-218986.0;7093.0;6.056583754144603;4.718713726082779;0.9923116029184174;256.6216062858515;83.33333333333333;173.28827295251818
0.2800000000000002;-159095.0;-196142.0;8476.0;7.142862589272303;5.711025329001196;1.1592544251434065;271.5697087819251;166.66666666666666;104.90304211525844
0.2840000000000002;-126354.0;-168661.0;9566.0;8.185282806947379;6.870279754144603;1.1909188351277002;260.60505441876904;83.33333333333333;177.2717210854357
0.2880000000000002;-89922.0;-136417.0;10063.0;9.107971516335166;8.061198589272303;1.0901322176750767;230.67217734694668;166.66666666666666;64.00551068028001
0.2920000000000002;-50629.0;-99812.0;9890.0;9.823221138710867;9.15133080694738;0.9060807093877852;178.8124055939253;83.33333333333333;95.47907226059198
0.2960000000000002;0.0;-59583.0;8954.0;12.65740111261684;10.057411516335165;0.625393622375702;708.5449934764933;83.33333333333333;625.21166014316
0.3000000000000002;0.0;-16852.0;16852.0;5.877305445697799e-33;10.682805138710867;3.592387973905973;-3164.35027815421;83.33333333333333;-3247.6836114875437
0.3040000000000002;72449.0;40248.0;-40248.0;18.112252663087908;14.27519311261684;-18.13900111261684;4528.063165771977;83.33333333333333;4444.729832438644
0.3080000000000002;111044.0;24793.0;47656.0;9.648964878640038;-3.863808;26.551036663087906;-2115.8219461119675;83.33333333333333;-2199.1552794453005
0.3120000000000002;146372.0;115541.0;-4497.0;8.831864524616494;22.687228663087907;-13.469975784447868;-204.27508850588617;83.33333333333333;-287.6084218392195
0.3160000000000002;177761.0;152410.0;-6038.0;7.847218416790372;9.21725287864004;-0.965036354023546;-246.16152695653048;166.66666666666666;-412.82819362319714
0.32000000000000023;205011.0;185418.0;-7657.0;6.812545935546776;8.252216524616493;-1.140070107826121;-258.6681203108989;166.66666666666666;-425.33478697756556
0.32400000000000023;228236.0;213866.0;-8855.0;5.80620404596377;7.112146416790372;-1.1496804812435961;-251.58547239575157;83.33333333333333;-334.9188057290849
0.32800000000000024;247813.0;237715.0;-9479.0;4.894353513924296;5.962465935546776;-1.0662458895830058;-227.9626330098685;83.33333333333333;-311.2959663432018
0.33200000000000024;264197.0;257299.0;-9486.0;4.095944056742544;4.89622004596377;-0.9125225320394743;-199.60236429543787;83.33333333333333;-282.9356976287712
0.33600000000000024;277813.0;273233.0;-9036.0;3.403951910190043;3.983697513924296;-0.7552094571817514;-172.99803663812528;83.33333333333333;-256.3313699714586
0.34000000000000025;288623.0;286146.0;-8333.0;2.702492966926024;3.2284880567425445;-0.6245041465525016;-175.36473581600475;0.0;-175.36473581600475
0.34400000000000025;295454.0;296561.0;-7938.0;1.7078756657185212;2.603983910190043;-0.6635389432640189;-248.6543253018757;0.0;-248.6543253018757
0.34800000000000025;296740.0;304322.0;-8868.0;0.321529754917212;1.940444966926024;-1.0838973012075028;-346.5864777003273;0.0;-346.5864777003273
0.35200000000000026;291533.0;307748.0;-11008.0;-1.3017717728605172;0.8565476657185213;-1.5917859108013093;-405.8253819444323;0.0;-405.8253819444323
0.35600000000000026;279081.0;304808.0;-13275.0;-3.113153791541515;-0.7352382450827879;-1.8409335277777295;-452.84550467024945;0.0;-452.84550467024945
0.36000000000000026;258917.0;294504.0;-15423.0;-5.040916507686051;-2.5761717728605174;-2.0175900186809983;-481.94067903613393;0.0;-481.94067903613393
0.36400000000000027;231779.0;276129.0;-17212.0;-6.784458824558163;-4.593761791541516;-2.0995067161445355;-435.88557921802806;0.0;-435.88557921802806
0.36800000000000027;199510.0;249356.0;-17577.0;-8.067188187435526;-6.693268507686051;-1.7785823168721127;-320.68234071934086;0.0;-320.68234071934086
0.3720000000000003;164201.0;215469.0;-15959.0;-8.827419266865894;-8.471850824558164;-1.1274013628773627;-190.0577698575918;0.0;-190.0577698575918
0.3760000000000003;127988.0;177072.0;-12871.0;-9.053049115426532;-9.599252187435527;-0.46378307943036745;-56.407462140159566;-83.33333333333333;26.92587119317376
0.3800000000000003;93404.0;136820.0;-8832.0;-8.64600150794955;-10.063035266865894;0.16211415143936136;101.76190186924572;-83.33333333333333;185.09523520257903
0.3840000000000003;62714.0;97217.0;-3813.0;-7.67272038836559;-9.900921115426533;0.8888716074769842;243.3202798959897;-166.66666666666666;409.9869465626564
0.3880000000000003;0.0;61169.0;1545.0;-15.678518970374661;-9.012049507949548;1.487649119583958;-2001.4496455022677;-83.33333333333333;-1918.1163121689344
0.3920000000000003;0.0;31072.0;-31072.0;-4.979955684602912e-38;-7.52440038836559;-11.13703058200907;3919.6297425936655;-83.33333333333333;4002.9630759269985
0.3960000000000003;0.0;-43573.0;43573.0;-8.368175480614775e-38;-18.66143097037466;22.84443897037466;-8.470549490029659e-36;-83.33333333333333;83.33333333333333
0.4000000000000003;0.0;-26841.0;26841.0;-6.448524951732738e-38;4.183008;-1.6062720000000001;4.7991263222050946e-36;-83.33333333333333;83.33333333333333
0.4040000000000003;0.0;-16535.0;16535.0;-3.1649009455738545e-38;2.576736;-0.9893759999999998;8.209060015397208e-36;-83.33333333333333;83.33333333333333
0.4080000000000003;0.0;-10186.0;10186.0;-6.208147250812939e-39;1.58736;-0.609504;6.360215551231401e-36;0.0;6.360215551231401e-36
0.4120000000000003;0.0;-6275.0;6275.0;6.349006471851944e-39;0.9778560000000001;-0.375456;3.139288430666221e-36;0.0;3.139288430666221e-36
0.4160000000000003;0.0;-3866.0;3866.0;8.869714710259334e-39;0.6024;-0.23126400000000003;6.301770596018473e-37;0.0;6.301770596018473e-37
0.4200000000000003;0.0;-2382.0;2382.0;6.408647479441088e-39;0.371136;-0.142464;-6.152668077045613e-37;-83.33333333333333;83.33333333333333
0.4240000000000003;0.0;-1468.0;1468.0;2.9249798411543528e-39;0.22867200000000001;-0.08774400000000002;-8.70916909571684e-37;-83.33333333333333;83.33333333333333
0.4280000000000003;0.0;-905.0;905.0;3.949504007852175e-40;0.140928;-0.054048;-6.325073600922838e-37;-83.33333333333333;83.33333333333333
0.43200000000000033;0.0;-558.0;558.0;-7.669329701902526e-40;0.08688;-0.033311999999999994;-2.9047084274386753e-37;0.0;-2.9047084274386753e-37
0.43600000000000033;0.0;-344.0;344.0;-1.3712268502271742e-39;0.053568000000000005;-0.020544000000000007;-1.510734700092304e-37;0.0;-1.510734700092304e-37
0.44000000000000034;0.0;-212.0;212.0;-4.1459145064208284e-39;0.033024;-0.012671999999999996;-6.936719140484136e-37;0.0;-6.936719140484136e-37
0.44400000000000034;0.0;-131.0;131.0;-1.3965306283847234e-38;0.020352000000000002;-0.007776000000000002;-2.4548479443566014e-36;-83.33333333333333;83.33333333333333
0.44800000000000034;0.0;-81.0;81.0;-3.459163299668426e-38;0.012576;-0.0048000000000000004;-5.156581678209257e-36;-83.33333333333333;83.33333333333333
0.45200000000000035;0.0;-50.0;50.0;-6.258879817106032e-38;0.007776;-0.0029759999999999995;-6.999291293594015e-36;-83.33333333333333;83.33333333333333
0.45600000000000035;68410.0;-31.0;31.0;17.102648376206393;0.0048000000000000004;-0.0018240000000000005;4275.662094051598;0.0;4275.662094051598
0.46000000000000035;100346.0;-20.0;68430.0;7.9840905352179865;0.002976;23.66895237620639;-2279.6394602471014;-83.33333333333333;-2196.3061269137684
0.46400000000000036;133594.0;94667.0;5679.0;8.311978803646852;23.67192837620639;-15.142653840988405;81.97206710721639;0.0;81.97206710721639
0.46800000000000036;167280.0;128784.0;4810.0;8.421299471431226;8.529274535217986;0.2444642684288656;27.33016694609347;0.0;27.33016694609347
0.47200000000000036;200855.0;163878.0;3402.0;8.393852697885752;8.773738803646852;-0.025847332215626295;-6.86169338636855;83.33333333333333;-90.19502671970187
0.47600000000000037;232461.0;198869.0;1986.0;7.90160389993296;8.747891471431226;-0.16338277354547337;-123.06219948819796;83.33333333333333;-206.3955328215313
0.48000000000000037;259637.0;233207.0;-746.0;6.793817425366197;8.584508697885752;-0.7545207979527921;-276.9466186416907;83.33333333333333;-360.279951975024
0.4840000000000004;280652.0;264526.0;-4889.0;5.253904841624763;7.82998789993296;-1.5055144745667635;-384.9781459353585;83.33333333333333;-468.3114792686918
0.4880000000000004;294290.0;289823.0;-9171.0;3.4094644589875602;6.324473425366197;-1.950984583741434;-461.1100956593007;0.0;-461.1100956593007
0.4920000000000004;299854.0;307316.0;-13026.0;1.391058601443331;4.373488841624763;-2.2145203826372026;-504.6014643860573;0.0;-504.6014643860573
0.4960000000000004;297867.0;315951.0;-16097.0;-0.496730829827106;2.15896845898756;-2.313221857544229;-471.94735781760926;0.0;-471.94735781760926
0.5000000000000003;289847.0;315334.0;-17467.0;-2.0052180624397296;-0.15425339855666897;-2.019309431270437;-377.1218081531559;0.0;-377.1218081531559
0.5040000000000003;277488.0;306640.0;-16793.0;-3.0895619197002753;-2.173562829827106;-1.4437832326126232;-271.08596431513644;83.33333333333333;-354.41929764846975
0.5080000000000003;262029.0;292171.0;-14683.0;-3.864838892234545;-3.6173460624397293;-0.8817838572605456;-193.81924313356745;83.33333333333333;-277.15257646690077
0.5120000000000003;243908.0;274175.0;-12146.0;-4.530209780157674;-4.499129919700275;-0.5317249725342705;-166.34272198078216;83.33333333333333;-249.67605531411547
0.5160000000000003;223002.0;254052.0;-10144.0;-5.226429367527579;-5.0308548922345455;-0.4731788879231278;-174.0548968424762;0.0;-174.0548968424762
0.5200000000000004;198978.0;232036.0;-9034.0;-6.00612180437598;-5.504033780157673;-0.5896595873699049;-194.92310921210043;0.0;-194.92310921210043
0.5240000000000004;171319.0;207662.0;-8684.0;-6.914643028961182;-6.093693367527578;-0.7460924368484019;-227.13030614630037;0.0;-227.13030614630037
0.5280000000000004;139637.0;180303.0;-8984.0;-7.920483533863021;-6.83978580437598;-0.9373212245852018;-251.46012622545987;0.0;-251.46012622545987
0.5320000000000004;104128.0;149195.0;-9558.0;-8.877372791439372;-7.777107028961182;-1.0609445049018396;-239.2223143940877;0.0;-239.2223143940877
0.5360000000000004;65528.0;113843.0;-9715.0;-9.649906594475844;-8.838051533863021;-0.9719612575763499;-193.13345075911803;-83.33333333333333;-109.8001174257847
0.5400000000000004;0.0;74603.0;-9075.0;-16.38220250674071;-9.810012791439371;-0.7110938030364728;-1683.0739780662168;-83.33333333333333;-1599.7406447328833
0.5440000000000004;0.0;32519.0;-32519.0;-7.859796159711367e-42;-10.521106594475844;-8.982919912264867;4095.5506266851776;-83.33333333333333;4178.883960018511
0.5480000000000004;-57598.0;-45497.0;45497.0;-14.399667926912539;-19.50402650674071;23.871738506740712;-3599.9169817281345;0.0;-3599.9169817281345
0.5520000000000004;-96661.0;-28027.0;-29571.0;-9.765706669766722;4.367712;-21.60619592691254;1158.4903142864541;0.0;1158.4903142864541
