Zeit[sec];Sollposition[°];Istposition[°];Positionsschleppfehler[°];Sollgeschwindigkeit[°/s];Istgeschwindigkeit[°/s];Geschwindigkeitsdifferenz[°/s];Sollbeschleunigung[°/s*s];Istbeschleunigung[°/s*s];Beschleunigungsdifferenz[°/s*s]
0.0;-9979199999.0;-9979200003.0;4.0;0.0;0.00023999999999999998;0.0;0.0;0.0;0.0
0.004;-9979199999.0;-9979200003.0;4.0;0.0;0.00023999999999999998;0.0;0.0;0.0;0.0
0.008;-9979199999.0;-9979200003.0;4.0;0.0;0.00023999999999999998;0.0;0.0;0.0;0.0
0.012;-9979199999.0;-9979200003.0;4.0;0.0;0.00023999999999999998;0.0;0.0;0.0;0.0
0.016;-9979199999.0;-9979200003.0;4.0;0.0;0.00023999999999999998;0.0;0.0;0.0;0.0
0.02;-9979199999.0;-9979200003.0;4.0;0.0;0.00023999999999999998;0.0;0.0;0.0;0.0
0.024;-9979199999.0;-9979200003.0;4.0;0.0;0.00023999999999999998;0.0;0.0;0.0;0.0
0.028;-9979199999.0;-9979200003.0;4.0;0.0;0.00023999999999999998;0.0;0.0;0.0;0.0
0.032;-9979199999.0;-9979200003.0;4.0;0.0;0.00023999999999999998;0.0;0.0;0.0;0.0
0.036000000000000004;-9979199999.0;-9979200003.0;4.0;0.0;0.00023999999999999998;0.0;0.0;0.0;0.0
0.04000000000000001;-9979199999.0;-9979200003.0;4.0;0.0;0.00023999999999999998;0.0;0.0;0.0;0.0
0.04400000000000001;-9979199999.0;-9979200003.0;4.0;0.0;0.00023999999999999998;0.0;0.0;0.0;0.0
0.048000000000000015;-9979199999.0;-9979200003.0;4.0;0.0;0.00023999999999999998;0.0;0.0;0.0;0.0
0.05200000000000002;-9979196838.0;-9979200003.0;4.0;0.790247636089824;0.00023999999999999998;0.0;197.56190902245598;0.0;197.56190902245598
0.05600000000000002;-9978970996.0;-9979200003.0;3165.0;56.460323547317415;0.00023999999999999998;0.9799076360898239;13917.518977806898;0.0;13917.518977806898
0.060000000000000026;-9978307886.0;-9979196083.0;225087.0;165.77756781308034;0.9801476360898239;68.98539591122758;27329.311066440732;0.0;27329.311066440732
0.06400000000000003;-9976888963.0;-9978916221.0;608335.0;354.73062491236857;69.96554354731741;132.31212426576292;47238.26427482206;166.66666666666666;47071.59760815539
0.06800000000000003;-9974400158.0;-9978107111.0;1218148.0;622.2014146548701;202.27766781308034;225.5418370992882;66867.69743562538;666.6666666666666;66201.0307689587
0.07200000000000004;-9970367283.0;-9976395833.0;1995675.0;1008.218656026141;427.81950491236853;314.12240974250153;96504.31034281774;1750.0;94754.31034281774
0.07600000000000004;-9964329261.0;-9973428066.0;3060783.0;1509.5052789738977;741.9419146548701;449.9237213712711;125321.65573693917;3583.3333333333335;121738.32240360582
0.08000000000000004;-9955772313.0;-9968660604.0;4331343.0;2139.237049269398;1191.8656360261411;577.5202229477566;157432.9425738751;6166.666666666667;151266.27590720842
0.08400000000000005;-9944145925.0;-9961583061.0;5810748.0;2906.5967296393774;1769.3858589738977;718.4960702955002;191839.9200924948;9666.666666666666;182173.25342582815
0.08800000000000005;-9929010404.0;-9951631534.0;7485609.0;3783.880052631951;2487.881929269398;867.8513403699794;219320.8307481434;14166.666666666666;205154.16408147675
0.09200000000000005;-9910165604.0;-9938208601.0;9198197.0;4711.1997909183565;3355.7332696393773;980.0386029925735;231829.93457160136;19833.333333333332;211996.60123826805
0.09600000000000006;-9887570201.0;-9920865514.0;10699910.0;5648.85043610634;4335.771872631951;1017.4225182864056;234412.6612969958;26500.0;207912.6612969958
0.10000000000000006;-9861285922.0;-9899452737.0;11882536.0;6571.069631866961;5353.1943909183565;1008.608205187983;230554.79894015525;34000.0;196554.79894015525
0.10400000000000006;-9831543047.0;-9874005527.0;12719605.0;7435.7182908350105;6361.8025961063395;972.4433357606213;216162.16474201245;41750.0;174412.16474201245
0.10800000000000007;-9798735862.0;-9844668544.0;13125497.0;8201.79577225988;7334.245931866961;889.0021789680504;191519.37035621746;49666.666666666664;141852.70368955078
0.11200000000000007;-9763335367.0;-9811775552.0;13039690.0;8850.12336102385;8223.248110835011;760.9290614248694;162081.89719099255;57083.333333333336;104998.56385765922
0.11600000000000008;-9725819000.0;-9775838844.0;12503477.0;9379.091508616844;8984.17717225988;616.1548087639694;132242.03689824845;63916.666666666664;68325.37023158178
0.12000000000000008;-9686686294.0;-9737437517.0;11618517.0;9783.175977551784;9600.33198102385;475.8705475929946;101021.11723373491;69750.0;31271.117233734913
0.12400000000000008;-9646427341.0;-9697132707.0;10446413.0;10064.737749473146;10076.202528616845;333.7582289349393;70390.4429803406;74583.33333333333;-4192.890352992734
0.12800000000000009;-9605432565.0;-9655492864.0;9065523.0;10248.69350077287;10409.960757551784;198.7083719213624;45988.93782493087;78333.33333333333;-32344.395508402456
0.1320000000000001;-9563994679.0;-9613058188.0;7625623.0;10359.471061232505;10608.669129473146;97.56175129972326;27694.390114908856;81000.0;-53305.609885091144
0.1360000000000001;-9522337599.0;-9570233265.0;6238586.0;10414.26941323203;10706.23088077287;27.555340459635772;13699.58799988126;82666.66666666667;-68967.07866678541
0.1400000000000001;-9480610850.0;-9527298121.0;4960522.0;10431.686647382903;10733.786221232505;-21.885488000474652;4354.308537718225;83500.0;-79145.69146228177
0.1440000000000001;-9438893057.0;-9484450519.0;3839669.0;10429.447871729943;10711.90073323203;-49.83394584912821;-559.693913240153;83750.0;-84309.69391324016
0.1480000000000001;-9397210813.0;-9441802252.0;2909195.0;10420.560555574542;10662.066787382902;-58.06721565295993;-2221.8290388500463;83583.33333333333;-85805.16237218337
0.1520000000000001;-9355561668.0;-9399386254.0;2175441.0;10412.285655817032;10603.999571729943;-52.912556155401035;-2068.7249393777165;83250.0;-85318.72493937772
0.1560000000000001;-9313932812.0;-9357181906.0;1620238.0;10407.21355303963;10551.087015574542;-41.587079757509855;-1268.0256943503991;82833.33333333333;-84101.35902768373
0.16000000000000011;-9272312050.0;-9315143907.0;1211095.0;10405.189953006493;10509.499935817032;-29.62068277740218;-505.9000082842431;82416.66666666667;-82922.56667495091
0.16400000000000012;-9230691892.0;-9273224390.0;912340.0;10405.03908725434;10479.87925303963;-19.948900033135942;-37.71643803838742;82166.66666666667;-82204.38310470506
0.16800000000000012;-9189069418.0;-9231384669.0;692777.0;10405.61805169588;10459.930353006494;-13.324645752154538;144.7411103849845;81916.66666666667;-81771.92555628168
0.17200000000000013;-9147444526.0;-9189598247.0;528829.0;10406.222423369467;10446.605707254339;-9.25791555845899;151.0929183968983;81750.0;-81598.9070816031
0.17600000000000013;-9105818194.0;-9147848856.0;404330.0;10406.58246753614;10437.34779169588;-6.865568326413268;90.01104166827645;81583.33333333333;-81493.32229166506
0.18000000000000013;-9064191402.0;-9106126928.0;308734.0;10406.697678746981;10430.482223369467;-5.375715833326467;28.802802710288233;81500.0;-81471.19719728972
0.18400000000000014;-9022564720.0;-9064426502.0;235100.0;10406.6697595621;10425.10650753614;-4.302828789159321;-6.979796220093704;81500.0;-81506.9797962201
0.18800000000000014;-8980938324.0;-9022743288.0;178568.0;10406.598588839264;10420.803678746981;-3.419839184880402;-17.79268070913531;81500.0;-81517.79268070913
0.19200000000000014;-8939360404.0;-8981073753.0;135429.0;10394.479452450641;10417.3838395621;-2.659510722836785;-3029.784097155698;81250.0;-84279.7840971557
0.19600000000000015;-8897720058.0;-8939414856.0;54452.0;10410.086007131393;10414.724328839264;-16.977756388621856;3901.638670187822;80666.66666666667;-76765.02799647885
0.20000000000000015;-8856079656.0;-8897823870.0;103812.0;10410.100213364281;10397.746572450642;18.568154680750013;3.55155822217057;79500.0;-79496.44844177783
0.20400000000000015;-8814439204.0;-8856158612.0;78956.0;10410.112285177745;10416.314727131392;-1.4771537671113038;3.0179533659975277;77750.0;-77746.982046634
0.20800000000000016;-8772798727.0;-8814499262.0;60058.0;10410.1188110929;10414.83757336428;-1.121808186535418;1.6314787885676196;75166.66666666667;-75165.03518787811
0.21200000000000016;-8731158243.0;-8772844399.0;45672.0;10410.12059199583;10413.715765177745;-0.8566340848446998;0.4452257326192921;71750.0;-71749.55477426738
0.21600000000000016;-8689517762.0;-8731192963.0;34720.0;10410.119795086694;10412.8591310929;-0.6553390970711916;-0.1992272841562226;67166.66666666667;-67166.86589395083
0.22000000000000017;-8647877287.0;-8689544148.0;26386.0;10410.118287012096;10412.20379199583;-0.5008369091356144;-0.37701864948758157;61583.333333333336;-61583.71035198282
0.22400000000000017;-8606301008.0;-8647897337.0;20050.0;10394.069207807406;10411.702955086694;-0.381668074598565;-4012.2698011723514;54833.333333333336;-58845.60313450568
0.22800000000000017;-8564674142.0;-8606252052.0;-48956.0;10406.716051737634;10411.321287012095;-20.189439204688824;3161.710982556997;47416.666666666664;-44254.955684109664
0.23200000000000018;-8523047160.0;-8564687525.0;13383.0;10406.744974021114;10391.131847807406;16.387183930228275;7.230570869978692;39500.0;-39492.76942913002
0.23600000000000018;-8481420055.0;-8523057449.0;10289.0;10406.775776528442;10407.519031737635;-0.15671771651977906;7.700626832047419;31666.666666666668;-31658.96603983462
0.24000000000000019;-8439792819.0;-8481428000.0;7945.0;10406.808350613668;10407.362314021115;-0.10983749267325038;8.143521306465118;24166.666666666668;-24158.523145360203
0.2440000000000002;-8398165447.0;-8439798991.0;6172.0;10406.842534703677;10407.252476528442;-0.07380591477340204;8.546022502287087;17333.333333333332;-17324.787310831045
0.2480000000000002;-8356537932.0;-8398170277.0;4830.0;10406.878202276608;10407.178670613668;-0.04633590999037551;8.91689323270839;11500.0;-11491.083106767292
0.25200000000000017;-8314910269.0;-8356541748.0;3816.0;10406.915282839273;10407.132334703678;-0.025172427069264813;9.270140666103543;6666.666666666667;-6657.396526000563
0.25600000000000017;-8273282452.0;-8314913320.0;3051.0;10406.953747977992;10407.107162276609;-0.008819437336569536;9.61628467985065;3000.0;-2990.3837153201493
0.2600000000000002;-8231654476.0;-8273284927.0;2475.0;10406.993588991269;10407.098342839272;0.0039051387193467235;9.96025331915007;250.0;-240.03974668084993
0.2640000000000002;-8190026335.0;-8231656519.0;2043.0;10407.034799879495;10407.102247977991;0.01392101327655837;10.30272205662186;-1333.3333333333333;1343.6360553899551
0.2680000000000002;-8148398023.0;-8190028055.0;1720.0;10407.07736916686;10407.116168991268;0.02183088822675927;10.642321841260127;-2166.6666666666665;2177.3089885079266
0.2720000000000002;-8106769536.0;-8148399504.0;1481.0;10407.121278444809;10407.137999879495;0.028229287365320488;10.97731948721048;-2416.6666666666665;2427.643986153877
0.2760000000000002;-8065140868.0;-8106770840.0;1304.0;10407.16650415809;10407.16622916686;0.03328927794973424;11.306428320494888;-2333.3333333333335;2344.6397616538284
0.2800000000000002;-8023512014.0;-8065142042.0;1174.0;10407.213020038327;10407.19951844481;0.03742571328075428;11.628970059064159;-2000.0;2011.6289700590642
0.2840000000000002;-7981882969.0;-8023513095.0;1081.0;10407.260798815032;10407.23694415809;0.04093588023715711;11.944694176236226;-1500.0;1511.9446941762362
0.2880000000000002;-7940253728.0;-7981883984.0;1015.0;10407.309813020649;10407.277880038328;0.0438187767049385;12.253551404228347;-1083.3333333333333;1095.5868847375616
0.2920000000000002;-7898624286.0;-7940254698.0;970.0;10407.360035102505;10407.321698815033;0.046314205615999526;12.555520464047731;-833.3333333333334;845.8888537973811
0.2960000000000002;-7856994638.0;-7898625226.0;940.0;10407.411437249964;10407.368013020649;0.048422081856188015;12.85053686478932;-583.3333333333334;596.1838701981227
0.3000000000000002;-7815364780.0;-7856995561.0;923.0;10407.463991180062;10407.416435102505;0.05038214745945879;13.138482524482242;-500.0;513.1384825244822
0.3040000000000002;-7773734707.0;-7815365694.0;914.0;10407.51766800447;10407.466817249964;0.05201393009883759;13.419206101843884;-250.0;263.4192061018439
0.3080000000000002;-7732104416.0;-7773735619.0;912.0;10407.572438195164;10407.518831180063;0.05355682440676901;13.69254767359962;-250.0;263.6925476735996
0.3120000000000002;-7690473901.0;-7732105330.0;914.0;10407.62827162368;10407.57238800447;0.054890190695005;13.958357129013166;-166.66666666666666;180.62502379567982
0.3160000000000002;-7648843158.0;-7690474821.0;920.0;10407.685137608987;10407.627278195165;0.056193428516053245;14.216496326753258;-166.66666666666666;180.88316299341992
0.32000000000000023;-7607212184.0;-7648844088.0;930.0;10407.743004986467;10407.68347162368;0.057465985306407674;14.466844369962928;-83.33333333333333;97.80017770329626
0.32400000000000023;-7565580975.0;-7607213125.0;941.0;10407.801842155806;10407.740937608987;0.058527377479549614;14.709292334828206;-83.33333333333333;98.04262566816153
0.32800000000000024;-7523949526.0;-7565581928.0;953.0;10407.861617123415;10407.799464986467;0.05955716933931399;14.943741902243346;0.0;14.943741902243346
0.33200000000000024;-7482317835.0;-7523950492.0;966.0;10407.92229753185;10407.859022155806;0.06055496760927781;15.170102108641004;-83.33333333333333;98.50343544197433
0.33600000000000024;-7440685898.0;-7482318814.0;979.0;10407.983850689248;10407.919577123415;0.06146040843486844;15.388289349630213;0.0;15.388289349630213
0.34000000000000025;-7399053711.0;-7440686890.0;992.0;10408.046243603669;10407.98103753185;0.06233315739882528;15.598228605085751;-83.33333333333333;98.93156193841908
0.34400000000000025;-7357421271.0;-7399054717.0;1006.0;10408.109443011946;10408.043370689249;0.0632329144191317;15.799852069449116;0.0;15.799852069449116
0.34800000000000025;-7315788575.0;-7357422291.0;1020.0;10408.173415405938;10408.106603603668;0.06403940827840415;15.993098497801839;0.0;15.993098497801839
0.35200000000000026;-7274155621.0;-7315789609.0;1034.0;10408.238127067449;10408.170643011947;0.06481239399181504;16.177915377738827;0.0;16.177915377738827
0.35600000000000026;-7232522405.0;-7274156668.0;1047.0;10408.30354409852;10408.235455405938;0.06549166150944075;16.354257767943636;-83.33333333333333;99.68759110127696
0.36000000000000026;-7190888924.0;-7232523465.0;1060.0;10408.369632454907;10408.300947067448;0.06619703107207897;16.522089096724812;0.0;16.522089096724812
0.36400000000000027;-7149255177.0;-7190889997.0;1073.0;10408.436357961367;10408.36714409852;0.06686835638720368;16.681376614997134;0.0;16.681376614997134
0.36800000000000027;-7107621160.0;-7149256261.0;1084.0;10408.503686357535;10408.434012454907;0.06738550645968644;16.832099041948823;83.33333333333333;-66.5012342913845
0.3720000000000003;-7065986872.0;-7107622256.0;1096.0;10408.57158330514;10408.501397961367;0.06804839616779645;16.974236901205586;0.0;16.974236901205586
0.3760000000000003;-7024352310.0;-7065987979.0;1107.0;10408.640014437065;10408.569446357535;0.06855694760452025;17.107782981383934;0.0;17.107782981383934
0.3800000000000003;-6982717472.0;-7024353427.0;1117.0;10408.70894536368;10408.63800330514;0.06903113192674937;17.23273165362116;0.0;17.23273165362116
0.3840000000000003;-6941082357.0;-6982718599.0;1127.0;10408.778341712088;10408.707034437066;0.06953092661387927;17.349087102047633;0.0;17.349087102047633
0.3880000000000003;-6899446962.0;-6941083493.0;1136.0;10408.848169135077;10408.77656536368;0.0699363484091009;17.456855747241207;0.0;17.456855747241207
0.3920000000000003;-6857811286.0;-6899448107.0;1145.0;10408.918393348336;10408.846501712089;0.0703674229880562;17.55605331482002;0.0;17.55605331482002
0.3960000000000003;-6816175328.0;-6857812440.0;1154.0;10408.988980148348;10408.916869135077;0.07076421326019044;17.646700002842408;0.0;17.646700002842408
0.4000000000000003;-6774539087.0;-6816176490.0;1162.0;10409.05989543084;10408.987633348337;0.07106680001015775;17.728820623233332;0.0;17.728820623233332
0.4040000000000003;-6732902561.0;-6774540256.0;1169.0;10409.13110521967;10409.058700148347;0.07133528249323717;17.802447207486694;83.33333333333333;-65.53088612584664
0.4080000000000003;-6691265748.0;-6732903736.0;1175.0;10409.202575674588;10409.13003543084;0.07156978882994736;17.86761372932233;83.33333333333333;-65.465719604011
0.4120000000000003;-6649631080.0;-6691266930.0;1182.0;10408.666587916834;10409.20160521967;0.07189045491759316;-133.99693943847524;83.33333333333333;-217.33027277180855
0.4160000000000003;-6608005943.0;-6649629837.0;-1243.0;10406.28385267082;10409.273495674588;-0.6814877577544394;-595.683811503477;0.0;-595.683811503477
0.4200000000000003;-6566400309.0;-6607995469.0;-10474.0;10401.407983998271;10408.592007916834;-2.936595246013894;-1218.9671681371692;0.0;-1218.9671681371692
0.4240000000000003;-6524832206.0;-6566372848.0;-27461.0;10392.025144322377;10405.65541267082;-5.895088672548809;-2345.7099189736255;0.0;-2345.7099189736255
0.4280000000000003;-6483336905.0;-6524773807.0;-58399.0;10373.824675757252;10399.76032399827;-11.239119675894472;-4550.1171412811345;-83.33333333333333;-4466.7838079478015
0.43200000000000033;-6441960844.0;-6483219723.0;-117182.0;10344.014976917388;10388.521204322376;-21.727448565123268;-7452.424709966181;-83.33333333333333;-7369.091376632848
0.43600000000000033;-6400755907.0;-6441752548.0;-208296.0;10301.233613564502;10366.793755757253;-35.27653883986568;-10695.340838221455;-166.66666666666666;-10528.674171554789
0.44000000000000034;-6359783358.0;-6400426480.0;-329427.0;10243.13682937325;10331.517216917387;-50.04922335288575;-14524.196047812893;-333.3333333333333;-14190.86271447956
0.44400000000000034;-6319115808.0;-6359300609.0;-482749.0;10166.886884196083;10281.467993564502;-67.29610419125129;-19062.48629429183;-666.6666666666666;-18395.819627625162
0.44800000000000034;-6278865126.0;-6318443922.0;-671886.0;10062.67018470902;10214.17188937325;-87.59816517716717;-26054.174871765554;-1083.3333333333333;-24970.84153843222
0.45200000000000035;-6239210244.0;-6277937628.0;-927498.0;9913.71989731477;10126.573724196083;-119.55341948706337;-37237.571848562766;-1583.3333333333333;-35654.23851522943
0.45600000000000035;-6200365336.0;-6237909547.0;-1300697.0;9711.226656460087;10007.02030470902;-171.34222739425059;-50623.31021367072;-2250.0;-48373.31021367072
0.46000000000000035;-6162579470.0;-6198566835.0;-1798501.0;9446.465882778733;9835.67807731477;-232.36148085468267;-66190.19342033834;-3250.0;-62940.19342033834
0.46400000000000036;-6126180093.0;-6160153569.0;-2425901.0;9099.843983947008;9603.316596460087;-302.4047736813536;-86655.47470793127;-4583.333333333333;-82072.14137459792
0.46800000000000036;-6091561981.0;-6122949922.0;-3230171.0;8654.52755188583;9300.911822778733;-394.87809883172486;-111329.10801529442;-6500.0;-104829.10801529442
0.47200000000000036;-6059123241.0;-6087325788.0;-4236193.0;8109.6845820096805;8906.033723947008;-505.67775206117767;-136210.74246903753;-8916.666666666666;-127294.07580237088
0.47600000000000037;-6029225317.0;-6053724365.0;-5398876.0;7474.480548046271;8400.35597188583;-614.6039498761502;-158801.00849085237;-12000.0;-146801.00849085237
0.48000000000000037;-6002230815.0;-6022581357.0;-6643960.0;6748.625235249192;7785.75202200968;-709.9090739634094;-181463.82819926974;-15916.666666666666;-165547.1615326031
0.4840000000000004;-5978457059.0;-5994277986.0;-7952829.0;5943.438773196469;7075.842948046271;-804.3874527970793;-201296.61551318076;-20666.666666666668;-180629.9488465141
0.4880000000000004;-5958065304.0;-5969192165.0;-9264894.0;5097.938581169276;6271.455495249192;-883.910362052723;-211375.0480067981;-26333.333333333332;-185041.7146734648
0.4920000000000004;-5941093042.0;-5947641985.0;-10423319.0;4243.065279625667;5387.545133196469;-915.0056920271927;-213718.32538590228;-32583.333333333332;-181134.99205256897
0.4960000000000004;-5927489668.0;-5929751828.0;-11341214.0;3400.843225286501;4472.539441169276;-909.9470015436086;-210555.5135847916;-39333.333333333336;-171222.18025145825
0.5000000000000003;-5917049861.0;-5915501459.0;-11988209.0;2609.95164233326;3562.5924396256673;-881.0417543391663;-197722.89573831018;-46333.333333333336;-151389.56240497684
