Zeit[sec];Sollposition[°];Istposition[°];Positionsschleppfehler[°];Sollgeschwindigkeit[°/s];Istgeschwindigkeit[°/s];Geschwindigkeitsdifferenz[°/s];Sollbeschleunigung[°/s*s];Istbeschleunigung[°/s*s];Beschleunigungsdifferenz[°/s*s]
0.0;0.0;-4.0;4.0;0.0;0.00023999999999999998;0.0;0.0;0.0;0.0
0.004;0.0;-4.0;4.0;0.0;0.00023999999999999998;0.0;0.0;0.0;0.0
0.008;0.0;-4.0;4.0;0.0;0.00023999999999999998;0.0;0.0;0.0;0.0
0.012;0.0;-4.0;4.0;0.0;0.00023999999999999998;0.0;0.0;0.0;0.0
0.016;0.0;-4.0;4.0;0.0;0.00023999999999999998;0.0;0.0;0.0;0.0
0.02;0.0;-4.0;4.0;0.0;0.00023999999999999998;0.0;0.0;0.0;0.0
0.024;0.0;-4.0;4.0;0.0;0.00023999999999999998;0.0;0.0;0.0;0.0
0.028;0.0;-4.0;4.0;0.0;0.00023999999999999998;0.0;0.0;0.0;0.0
0.032;0.0;-4.0;4.0;0.0;0.00023999999999999998;0.0;0.0;0.0;0.0
0.036000000000000004;0.0;-4.0;4.0;0.0;0.00023999999999999998;0.0;0.0;0.0;0.0
0.04000000000000001;0.0;-4.0;4.0;0.0;0.00023999999999999998;0.0;0.0;0.0;0.0
0.04400000000000001;0.0;-4.0;4.0;0.0;0.00023999999999999998;0.0;0.0;0.0;0.0
0.048000000000000015;0.0;-4.0;4.0;0.0;0.00023999999999999998;0.0;0.0;0.0;0.0
0.05200000000000002;0.0;-4.0;4.0;0.0;0.00023999999999999998;0.0;0.0;0.0;0.0
0.05600000000000002;0.0;-4.0;4.0;0.0;0.00023999999999999998;0.0;0.0;0.0;0.0
0.060000000000000026;0.0;-4.0;4.0;0.0;0.00023999999999999998;0.0;0.0;0.0;0.0
0.06400000000000003;0.0;-4.0;4.0;0.0;0.00023999999999999998;0.0;0.0;0.0;0.0
0.06800000000000003;-2704.0;-4.0;4.0;-0.6760937723158488;0.00023999999999999998;0.0;-169.0234430789622;0.0;-169.0234430789622
0.07200000000000004;-29655.0;-4.0;-2700.0;-6.737729368190855;0.00023999999999999998;-0.8383337723158488;-1515.4088989687516;0.0;-1515.4088989687516
0.07600000000000004;-162124.0;-3356.0;-26299.0;-33.11730611223549;-0.8380937723158488;-7.477575595875006;-6594.894186011158;0.0;-6594.894186011158
0.08000000000000004;-599676.0;-36618.0;-125506.0;-109.38797696395599;-8.315669368190855;-32.33199674404464;-19067.667712930124;0.0;-19067.667712930124
0.08400000000000005;-1707870.0;-199208.0;-400468.0;-277.048451130254;-40.64766611223549;-92.76839085172048;-41915.118541574506;-83.33333333333333;-41831.78520824118
0.08800000000000005;-4020221.0;-732872.0;-974998.0;-578.0877362675819;-133.41605696395598;-202.13227416629806;-75259.82128433198;-416.6666666666667;-74843.1546176653
0.09200000000000005;-8185082.0;-2075065.0;-1945156.0;-1041.2153497566294;-335.54833113025404;-359.24876513732784;-115781.90337226186;-1333.3333333333333;-114448.57003892853
0.09600000000000006;-14897979.0;-4854253.0;-3330829.0;-1678.2240776525268;-694.7970962675819;-546.2679934890474;-159252.18197397437;-3000.0;-156252.18197397437
0.10000000000000006;-24866370.0;-9818513.0;-5079466.0;-2492.0977105780485;-1241.0650897566293;-741.9269478958975;-203468.4082313804;-5916.666666666667;-197551.74156471374
0.10400000000000006;-38800183.0;-17750481.0;-7115889.0;-3483.4529605325365;-1982.9920376525267;-936.0590129255218;-247838.812488622;-10166.666666666666;-237672.14582195535
0.10800000000000007;-57388056.0;-29426685.0;-9373498.0;-4646.968106995918;-2919.0510505780485;-1126.8117899544877;-290878.78661584534;-16000.0;-274878.78661584534
0.11200000000000007;-81249895.0;-45610136.0;-11777920.0;-5965.4593899201445;-4045.862840532536;-1307.7804664633813;-329622.8207310567;-23333.333333333332;-306289.4873977233
0.11600000000000008;-110892398.0;-67024709.0;-14225186.0;-7410.625369093271;-5353.643306995918;-1465.327242924227;-361291.4947932816;-32083.333333333332;-329208.1614599482
0.12000000000000008;-146678501.0;-94300591.0;-16591807.0;-8946.52543613861;-6818.970549920145;-1587.1632391731255;-383975.0167613349;-42250.0;-341725.0167613349
0.12400000000000008;-188804999.0;-127925126.0;-18753375.0;-10531.623844499689;-8406.13378909327;-1665.59414704534;-396274.60209026956;-53583.333333333336;-342691.26875693625
0.12800000000000009;-237297828.0;-168212037.0;-20592962.0;-12123.206709930726;-10071.72793613861;-1695.4736283610782;-397895.71635775926;-65916.66666666667;-331979.04969109263
0.1320000000000001;-292027296.0;-215280843.0;-22016985.0;-13682.36641536714;-11767.201564499688;-1677.0242454310373;-389789.92635910347;-78750.0;-311039.92635910347
0.1360000000000001;-352729048.0;-269057746.0;-22969550.0;-15175.437359149539;-13444.225809930726;-1616.313605436415;-373267.73594559974;-91916.66666666667;-281351.06927893305
0.1400000000000001;-419028732.0;-329299903.0;-23429145.0;-16574.9200349522;-15060.53941536714;-1520.6466437823983;-349870.6689506653;-104833.33333333333;-245037.33561733196
0.1440000000000001;-490474413.0;-395624647.0;-23404085.0;-17861.419489456814;-16581.18605914954;-1397.979075802661;-321624.86362615344;-117416.66666666667;-204208.19695948678
0.1480000000000001;-566570167.0;-467541307.0;-22933106.0;-19023.937689404793;-17979.1651349522;-1258.2407145046127;-290629.54998699477;-129166.66666666667;-161462.8833203281
0.1520000000000001;-646801608.0;-544490930.0;-22079237.0;-20057.85921443469;-19237.405849456813;-1111.286059947979;-258480.38125747463;-140083.33333333334;-118397.04792414128
0.1560000000000001;-730649258.0;-625885697.0;-20915911.0;-20961.911552625872;-20348.69190940479;-964.121965029899;-226013.08454779518;-149916.66666666666;-76096.41788112852
0.16000000000000011;-817591351.0;-711136952.0;-19512306.0;-21735.52224687813;-21312.81387443469;-819.8360381911807;-193402.67356306413;-158583.33333333334;-34819.340229730784
0.16400000000000012;-907106125.0;-799667551.0;-17923800.0;-22378.692273830304;-22132.64991262587;-678.300334252257;-160792.5067380438;-166166.66666666666;5374.159928622845
0.16800000000000012;-998689091.0;-890911351.0;-16194774.0;-22895.74058141643;-22810.95024687813;-539.4284669521767;-129262.07689653165;-172583.33333333334;43321.25643680169
0.17200000000000013;-1091885588.0;-984312865.0;-14376226.0;-23299.1229669066;-23350.378713830305;-407.935427586126;-100845.59637254279;-177833.33333333334;76987.73696079056
0.17600000000000013;-1186316179.0;-1079346121.0;-12539467.0;-23607.646780644758;-23758.31414141643;-293.1768454901721;-77130.95343453914;-182083.33333333334;104952.3798987942
0.18000000000000013;-1281678322.0;-1175552084.0;-10764095.0;-23840.534615885474;-24051.490986906603;-202.00149373815657;-58221.958810178876;-185333.33333333334;127111.37452315446
0.18400000000000014;-1377729933.0;-1272566053.0;-9112269.0;-24012.90156512824;-24253.49248064476;-133.77827524071472;-43091.737310691315;-187666.66666666666;144574.92935597536
0.18800000000000014;-1474269459.0;-1370115136.0;-7614797.0;-24134.88041889947;-24387.270755885475;-82.51862924276429;-30494.71344280755;-189333.33333333334;158838.6198905258
0.19200000000000014;-1571125903.0;-1467994293.0;-6275166.0;-24214.109835633768;-24469.78938512824;-41.600993771229696;-19807.354183574716;-190333.33333333334;170525.97914975864
0.19600000000000015;-1668162227.0;-1566039854.0;-5086049.0;-24259.079672375894;-24511.39037889947;-7.882396734297799;-11242.459185531516;-191083.33333333334;179840.87414780183
0.20000000000000015;-1765281259.0;-1664116945.0;-4045282.0;-24279.756937528655;-24519.272775633766;17.476183257873345;-5169.316288190203;-191333.33333333334;186164.01704514315
0.20400000000000015;-1862424139.0;-1762124131.0;-3157128.0;-24285.71886441733;-24501.796592375893;32.611974847237434;-1490.4817221686244;-191500.0;190009.51827783138
0.20800000000000016;-1959562183.0;-1860000869.0;-2423270.0;-24284.509808551837;-24469.184617528656;38.06955311132697;302.2639663731752;-191333.33333333334;191635.5972997065
0.21200000000000016;-2056686601.0;-1957725329.0;-1836854.0;-24281.103452375177;-24431.11506441733;36.39401586549138;851.589044164939;-191083.33333333334;191934.9223774983
0.21600000000000016;-2153798943.0;-2055304213.0;-1382388.0;-24278.084329482437;-24394.721048551837;30.674316176660795;754.780723184922;-190416.66666666666;191171.4473898516
0.22000000000000017;-2250904101.0;-2152760399.0;-1038544.0;-24276.288198553946;-24364.046732375176;23.64976289273909;449.0327321227596;-189333.33333333334;189782.3660654561
0.22400000000000017;-2348006471.0;-2250121986.0;-782115.0;-24275.59135228748;-24340.396969482437;17.18187092849257;174.21156661657733;-187333.33333333334;187507.54489994992
0.22800000000000017;-2445108658.0;-2347414846.0;-591625.0;-24275.545652512523;-24323.215098553945;12.126246266463568;11.424943739257287;-184250.0;184261.42494373926
0.23200000000000018;-2542211632.0;-2444659201.0;-449457.0;-24275.742398469098;-24311.08885228748;8.575779774957482;-49.1864891437217;-179833.33333333334;179784.1468441896
0.23600000000000018;-2639315396.0;-2541869253.0;-342379.0;-24275.93983507877;-24302.513072512524;6.2279340434251935;-49.35915241821931;-173916.66666666666;173867.30751424844
0.24000000000000019;-2736419603.0;-2639054393.0;-261003.0;-24276.050625663633;-24296.2851384691;4.685123390328954;-27.69764621552895;-166583.33333333334;166555.6356871178
0.2440000000000002;-2833523923.0;-2736220793.0;-198810.0;-24276.078852722825;-24291.60001507877;3.6207894151375513;-7.056764798107906;-157750.0;157742.94323520188
0.2480000000000002;-2930628172.0;-2833372709.0;-151214.0;-24276.060968947426;-24287.979225663632;2.8275329408061225;4.470943849810283;-147583.33333333334;147587.80427718314
0.25200000000000017;-3027732299.0;-2930513315.0;-114857.0;-24276.03075476704;-24285.151692722826;2.1993037754000397;7.553545096016023;-136166.66666666666;136174.22021176267
0.25600000000000017;-3124836332.0;-3027645124.0;-87175.0;-24276.007054006735;-24282.952388947426;1.6911341803825053;5.925190076595754;-123833.33333333333;123839.25852340992
0.2600000000000002;-3221940317.0;-3124770169.0;-66163.0;-24275.99507365282;-24281.261254767043;1.2844207603084214;2.9950884791105636;-110916.66666666667;110919.66175514579
0.2640000000000002;-3319044291.0;-3221890076.0;-50241.0;-24275.9924062567;-24279.976834006735;0.9673003539173806;0.666849029585137;-97833.33333333333;97834.00018236291
0.2680000000000002;-3416148274.0;-3319006114.0;-38177.0;-24275.994488457894;-24279.009533652817;0.7265073961170856;-0.5205502984608756;-84833.33333333333;84832.81278303487
0.2720000000000002;-3513252269.0;-3416119246.0;-29028.0;-24275.997655954478;-24278.2830262567;0.5468577988067409;-0.7918741457615397;-72250.0;72249.20812585423
0.2760000000000002;-3610356274.0;-3513230190.0;-22079.0;-24276.000025479098;-24277.736168457894;0.41377250341611216;-0.5923811550019309;-60416.666666666664;60416.07428551166
0.2800000000000002;-3707460283.0;-3610339479.0;-16795.0;-24276.001156701805;-24277.322395954478;0.31467047538171755;-0.2828056767611997;-49500.0;49499.71719432324
0.2840000000000002;-3804564293.0;-3707447509.0;-12774.0;-24276.00135604556;-24277.007725479096;0.24012877729182946;-0.04983593862561975;-39750.0;39749.950164061374
0.2880000000000002;-3901668302.0;-3804554579.0;-9714.0;-24276.001108199907;-24276.767596701804;0.18340065624579438;0.0619614129391266;-31083.333333333332;31083.39529474627
0.2920000000000002;-3998772310.0;-3901660915.0;-7387.0;-24276.000780041035;-24276.58419604556;0.1398678456498601;0.08203971810871735;-23583.333333333332;23583.41537305144
0.2960000000000002;-4095876317.0;-3998766692.0;-5618.0;-24276.000548573873;-24276.44432819991;0.10646815887230332;0.05786679048469523;-17166.666666666668;17166.724533457153
0.3000000000000002;-4192980323.0;-4095872043.0;-4274.0;-24276.00044626603;-24276.337860041036;0.08087146716206917;0.025576960979378782;-11833.333333333334;11833.358910294313
0.3040000000000002;-4290084329.0;-4192977070.0;-3253.0;-24276.000435464743;-24276.256988573874;0.06136230784613872;0.002700321601878386;-7583.333333333333;7583.336033654935
0.3080000000000002;-4387188336.0;-4290081852.0;-2477.0;-24276.00046537011;-24276.195626266028;0.046570801285270136;-0.007476342034351546;-4333.333333333333;4333.325856991299
0.3120000000000002;-4484292342.0;-4387186448.0;-1888.0;-24276.000499818772;-24276.149055464743;0.03531009463040391;-0.00861216540215537;-1916.6666666666667;1916.6580545012646
0.3160000000000002;-4581396349.0;-4484290902.0;-1440.0;-24276.000522625905;-24276.113745370112;0.0268455513396475;-0.005701783265976701;-333.3333333333333;333.32763155006734
0.32000000000000023;-4678500356.0;-4581395249.0;-1100.0;-24276.00053188735;-24276.086899818773;0.020377192868181737;-0.0023153606889536604;750.0;-750.002315360689
0.32400000000000023;-4775604363.0;-4678499515.0;-841.0;-24276.00053213633;-24276.066522625904;0.015530738557572477;-6.224581738933921e-05;1333.3333333333333;-1333.3333955791506
0.32800000000000024;-4872708369.0;-4775603718.0;-645.0;-24276.000528698165;-24276.050991887347;0.011759751014324138;0.0008595416147727519;1750.0;-1749.9991404583852
0.33200000000000024;-4969812376.0;-4872707874.0;-495.0;-24276.00052513413;-24276.039232136332;0.009003438168292632;0.0008910083124646917;1833.3333333333333;-1833.3324423250208
0.33600000000000024;-5066916383.0;-4969811994.0;-382.0;-24276.000522911552;-24276.030228698164;0.006783564032957656;0.0005556448741117492;1750.0;-1749.999444355126
0.34000000000000025;-5164020389.0;-5066916087.0;-296.0;-24276.000522092236;-24276.02344513413;0.00516222258011112;0.00020482912077568471;1500.0;-1499.9997951708792
0.34400000000000025;-5261124396.0;-5164020160.0;-229.0;-24276.00052215096;-24276.01828291155;0.0040208193167927675;-1.4681063476018608e-05;1250.0;-1250.0000146810635
0.34800000000000025;-5358228403.0;-5261124217.0;-179.0;-24276.000522536855;-24276.014262092234;0.0029999412727192976;-9.647374099586159e-05;916.6666666666666;-916.6667631404076
0.35200000000000026;-5455332410.0;-5358228262.0;-141.0;-24276.000522901333;-24276.01126215096;0.002279614105646033;-9.111954568652436e-05;666.6666666666666;-666.6667577862123
0.35600000000000026;-5552436416.0;-5455332297.0;-113.0;-24276.00052311642;-24276.008982536856;0.0016796355230326299;-5.3772055252920836e-05;500.0;-500.00005377205525
0.36000000000000026;-5649540423.0;-5552436326.0;-90.0;-24276.000523187144;-24276.007302901333;0.0013797849132970441;-1.7680577002465725e-05;416.6666666666667;-416.6666843472437
0.36400000000000027;-5746644430.0;-5649540349.0;-74.0;-24276.000523171733;-24276.00592311642;0.0009599292752682231;3.852619556710124e-06;333.3333333333333;-333.33332948071376
0.36800000000000027;-5843748436.0;-5746644368.0;-62.0;-24276.00052313005;-24276.004963187144;0.000720015410479391;1.0420990292914212e-05;166.66666666666666;-166.66665624567636
0.3720000000000003;-5940852443.0;-5843748384.0;-52.0;-24276.000523092902;-24276.004243171734;0.000600041683355812;9.28685039980337e-06;166.66666666666666;-166.66665737981626
0.3760000000000003;-6037956450.0;-5940852398.0;-45.0;-24276.00052307214;-24276.00364313005;0.0004200371477054432;5.1904862630181015e-06;83.33333333333333;-83.33332814284707
0.3800000000000003;-6135060457.0;-6037956410.0;-40.0;-24276.000523067272;-24276.003223092903;0.00030002076164237224;1.216903910972178e-06;166.66666666666666;-166.66666544976275
0.3840000000000003;-6232164463.0;-6135060421.0;-36.0;-24276.000523068247;-24276.00292307214;0.00024000486882869154;-2.4374458007514477e-07;83.33333333333333;-83.33333357707791
0.3880000000000003;-6329268470.0;-6232164431.0;-32.0;-24276.000523073435;-24276.002683067272;0.00023999902623472735;-1.2969394447281957e-06;83.33333333333333;-83.33333463027277
0.3920000000000003;-6426372477.0;-6329268440.0;-30.0;-24276.000523076684;-24276.002443068246;0.00011999481284874491;-8.121787686832249e-07;0.0;-8.121787686832249e-07
0.3960000000000003;-6523476483.0;-6426372449.0;-28.0;-24276.000523079278;-24276.002323073433;0.00011999674825347029;-6.484697223640978e-07;0.0;-6.484697223640978e-07
0.4000000000000003;-6620580490.0;-6523476457.0;-26.0;-24276.00052307993;-24276.002203076685;0.00011999740672763437;-1.6279955161735415e-07;0.0;-1.6279955161735415e-07
0.4040000000000003;-6717683766.0;-6620580465.0;-25.0;-24275.81793264384;-24276.00208307928;5.999935092404485e-05;45.647609022125835;0.0;45.647609022125835
0.4080000000000003;-6814781590.0;-6717684473.0;707.0;-24274.454772184894;-24276.002023079927;0.22651043608857435;340.79011473659193;0.0;340.79011473659193
0.4120000000000003;-6911859644.0;-6814787575.0;5985.0;-24269.512209635737;-24275.77551264384;1.6798404589462734;1235.6406372891797;0.0;1235.6406372891797
0.4160000000000003;-7008887899.0;-6911883957.0;24313.0;-24257.06281571865;-24274.095672184892;6.042242549156072;3112.3484792715317;0.0;3112.3484792715317
0.4200000000000003;-7105811911.0;-7008956170.0;68271.0;-24231.00179302634;-24268.053429635736;15.086873917083722;6515.255673078173;83.33333333333333;6431.9223397448395
0.4240000000000003;-7202540920.0;-7105968036.0;156125.0;-24182.251048223974;-24252.966555718653;31.332262692314544;12187.686200591088;83.33333333333333;12104.352867257754
0.4280000000000003;-7298940103.0;-7202854573.0;313653.0;-24099.79459062996;-24221.634293026338;58.20242480236266;20614.11439850326;250.0;20364.11439850326
0.43200000000000033;-7394831406.0;-7299508300.0;568197.0;-23972.824554693372;-24163.431868223975;97.72909759401591;31742.508984147207;500.0;31242.508984147207
0.43600000000000033;-7489999527.0;-7395771111.0;939705.0;-23792.029284098313;-24065.70277062996;149.2605159365885;45198.817648764816;1000.0;44198.817648764816
0.44000000000000034;-7584196274.0;-7491436880.0;1437353.0;-23549.18549232892;-23916.44225469337;210.65415059505904;60710.94794234796;1833.3333333333333;58877.61460901462
0.44400000000000034;-7677132343.0;-7586260032.0;2063758.0;-23234.016314477984;-23705.788104098312;280.42809176939045;78792.2944627344;2916.6666666666665;75875.62779606773
0.44800000000000034;-7768455335.0;-7679961472.0;2829129.0;-22830.74674098823;-23425.36001232892;361.0914378509369;100817.39337243835;4666.666666666667;96150.72670577168
0.45200000000000035;-7857734644.0;-7772218546.0;3763211.0;-22319.826340554762;-23064.268574477985;459.31449348975366;127730.10010836697;6833.333333333333;120896.76677503364
0.45600000000000035;-7944472056.0;-7862638362.0;4903718.0;-21684.35177553255;-22604.95408098823;579.3508204334685;158868.6412555535;9750.0;149118.6412555535
0.46000000000000035;-8028132237.0;-7950740775.0;6268719.0;-20915.04439965496;-22025.603260554763;717.3746250222139;192326.84396939748;13333.333333333334;178993.51063606417
0.46400000000000036;-8108174053.0;-8035973689.0;7841452.0;-20010.453001330177;-21308.22863553255;863.6713558775919;226147.84958119527;17916.666666666668;208231.1829145286
0.46800000000000036;-8184070615.0;-8117751918.0;9577865.0;-18974.13961559107;-20444.557279654957;1008.7761783247806;259078.3464347769;23583.333333333332;235495.01310144356
0.47200000000000036;-8255317187.0;-8195495042.0;11424427.0;-17811.642115300798;-19435.781101330176;1147.1071057391055;290624.375072568;30333.333333333332;260291.04173923467
0.47600000000000037;-8321434685.0;-8268649737.0;13332550.0;-16529.3736232398;-18288.67399559107;1276.9848802902743;320567.1230152493;38166.666666666664;282400.45634858264
0.48000000000000037;-8381983771.0;-8336696493.0;15261808.0;-15137.27094953149;-17011.689115300796;1398.0239720609952;348025.6684270776;47083.333333333336;300942.3350937442
0.4840000000000004;-8436592472.0;-8399151153.0;17167382.0;-13652.174472249058;-15613.665143239801;1506.4371137083108;371274.119320608;57083.333333333336;314190.7859872746
0.4880000000000004;-8484983705.0;-8455580065.0;18987593.0;-12097.807758433231;-14107.22802953149;1594.3091372824329;388591.6784539568;68000.0;320591.6784539568
0.4920000000000004;-8527004081.0;-8505631740.0;20648035.0;-10505.093466956156;-12512.918892249058;1653.993233815825;398178.57286926894;79666.66666666667;318511.90620260226
0.4960000000000004;-8562658408.0;-8549067442.0;22063361.0;-8913.581233928806;-10858.925658433232;1677.633851477076;397878.0582568374;92083.33333333333;305794.7249235041
0.5000000000000003;-8592128737.0;-8585792609.0;23134201.0;-7367.581980259373;-9181.291806956157;1655.7626330273506;386499.81341735815;104833.33333333333;281666.48008402484
0.5040000000000003;-8615766500.0;-8615894725.0;23765988.0;-5909.440635015214;-7525.529173928806;1583.9064736694327;364535.3363110398;117916.66666666667;246618.66964437315
