Zeit[sec];Sollposition[°];Istposition[°];Positionsschleppfehler[°];Sollgeschwindigkeit[°/s];Istgeschwindigkeit[°/s];Geschwindigkeitsdifferenz[°/s];Sollbeschleunigung[°/s*s];Istbeschleunigung[°/s*s];Beschleunigungsdifferenz[°/s*s]
0.0;0.0;5.0;-5.0;-0.0;-0.00021499999999999997;0.0;0.0;0.0;0.0
0.004;0.0;5.0;-5.0;-0.0;-0.00021499999999999997;0.0;0.0;0.0;0.0
0.008;0.0;5.0;-5.0;-0.0;-0.00021499999999999997;0.0;0.0;0.0;0.0
0.012;0.0;5.0;-5.0;-0.0;-0.00021499999999999997;0.0;0.0;0.0;0.0
0.016;0.0;5.0;-5.0;-0.0;-0.00021499999999999997;0.0;0.0;0.0;0.0
0.02;0.0;5.0;-5.0;-0.0;-0.00021499999999999997;0.0;0.0;0.0;0.0
0.024;0.0;5.0;-5.0;-0.0;-0.00021499999999999997;0.0;0.0;0.0;0.0
0.028;0.0;5.0;-5.0;-0.0;-0.00021499999999999997;0.0;0.0;0.0;0.0
0.032;0.0;5.0;-5.0;-0.0;-0.00021499999999999997;0.0;0.0;0.0;0.0
0.036000000000000004;0.0;5.0;-5.0;-0.0;-0.00021499999999999997;0.0;0.0;0.0;0.0
0.04000000000000001;0.0;5.0;-5.0;-0.0;-0.00021499999999999997;0.0;0.0;0.0;0.0
0.04400000000000001;0.0;5.0;-5.0;-0.0;-0.00021499999999999997;0.0;0.0;0.0;0.0
0.048000000000000015;0.0;5.0;-5.0;-0.0;-0.00021499999999999997;0.0;0.0;0.0;0.0
0.05200000000000002;0.0;5.0;-5.0;-0.0;-0.00021499999999999997;0.0;0.0;0.0;0.0
0.05600000000000002;0.0;5.0;-5.0;-0.0;-0.00021499999999999997;0.0;0.0;0.0;0.0
0.060000000000000026;3917.0;5.0;-5.0;0.9792807375445453;-0.00021499999999999997;0.0;244.8201843861363;0.0;244.8201843861363
0.06400000000000003;42953.0;5.0;3912.0;9.759191483833051;-0.00021499999999999997;1.1477117375445454;2194.9776865721265;0.0;2194.9776865721265
0.06800000000000003;234827.0;4594.0;38359.0;47.968405098586636;1.1474967375445453;10.261131746288507;9552.303403688396;0.0;9552.303403688396
0.07200000000000004;868666.0;50228.0;184599.0;158.4597249302308;11.408628483833052;44.49753361475358;27622.829957911043;0.0;27622.829957911043
0.07600000000000004;2474423.0;273852.0;594814.0;401.43928275445694;55.906162098586634;128.13056483164416;60744.88945605653;166.66666666666666;60578.22278938987
0.08000000000000004;5826266.0;1009998.0;1464425.0;837.9606216702731;184.0367269302308;280.3728308242262;109130.33472895404;583.3333333333334;108547.00139562071
0.08400000000000005;11866138.0;2867636.0;2958630.0;1509.9680237919395;464.40955775445696;500.77215391581615;168001.8505304166;1833.3333333333333;166168.51719708325
0.08800000000000005;21606166.0;6728362.0;5137776.0;2435.0068897199044;965.1817116702731;765.7106801216663;231259.71648199123;4166.666666666667;227093.04981532457
0.09200000000000005;36078034.0;13651931.0;7954235.0;3617.966768212;1730.8923917919394;1046.1466029279648;295739.9696230239;8250.0;287489.9696230239
0.09600000000000006;56319471.0;24760086.0;11317948.0;5060.359006925146;2777.038994719904;1327.5995374920954;360598.05967828655;14250.0;346348.05967828655
0.10000000000000006;83339767.0;41178640.0;15140831.0;6755.073601418919;4104.6385322119995;1606.7762077131465;423678.6486234432;22416.666666666668;401261.9819567766
0.10400000000000006;118050873.0;64024298.0;19315469.0;8677.776288741066;5711.414739925146;1874.2240284937725;480675.6718305369;32833.333333333336;447842.33849720354
0.10800000000000007;161204348.0;94366853.0;23684020.0;10788.36804442063;7585.6387684189185;2110.550380322148;527647.9389198908;45333.333333333336;482314.6055865574
0.11200000000000007;213353930.0;133151609.0;28052739.0;13037.394925187244;9696.189148741067;2298.4466726795617;562256.7201916536;59916.666666666664;502340.0535249869
0.11600000000000008;274835160.0;181130152.0;32223778.0;15370.306908986226;11994.635821420628;2428.3815577666155;583227.9959497455;76250.0;506977.99594974547
0.12000000000000008;345770978.0;238822221.0;36012939.0;17733.953648315834;14423.017379187244;2495.8459067989825;590911.684832402;94000.0;496911.684832402
0.12400000000000008;426109229.0;306497674.0;39273304.0;20084.561827212772;16918.863285986226;2503.8424343296065;587652.0447242346;112833.33333333333;474818.71139090136
0.12800000000000009;515673059.0;384188496.0;41920733.0;22390.956331368994;19422.705720315833;2464.4476258969407;576598.6260390555;132166.66666666666;444431.95937238884
0.1320000000000001;614203016.0;471737109.0;43935950.0;24632.488048162275;21887.153346212774;2393.04883515622;560382.9291983203;151666.66666666666;408716.2625316535
0.1360000000000001;721374791.0;568857917.0;45345099.0;26792.942590024864;24280.202181368993;2302.125123793281;540113.6354656473;170833.33333333334;369280.302132314
0.1400000000000001;836791037.0;675187226.0;46187565.0;28854.060063669254;26582.327305162275;2196.68057986259;515279.3684110975;189416.66666666666;325862.7017444308
0.1440000000000001;959966189.0;790303257.0;46487780.0;30793.78649885551;28779.007885024865;2074.026718644389;484931.6087965635;207416.66666666666;277514.94212989684
0.1480000000000001;1090314340.0;913715395.0;46250794.0;32587.03625132667;30853.034603669254;1929.5360371862516;448312.4381177904;224500.0;223812.4381177904
0.1520000000000001;1227138368.0;1044845677.0;45468663.0;34206.00535727001;32782.570640855505;1759.618119471168;404742.27648583567;240666.66666666666;164075.60981916898
0.1560000000000001;1369633405.0;1183014432.0;44123936.0;35623.757636154434;34542.18876032667;1561.1458449433412;354438.0697211054;255666.66666666666;98771.40305443876
0.16000000000000011;1516920467.0;1327427770.0;42205635.0;36821.763670488326;36103.334605270014;1335.2653358844182;299501.508583473;269333.3333333333;30168.175250139655
0.16400000000000012;1668100280.0;1477182169.0;39738298.0;37794.951379677776;37438.59994115443;1091.9105433338918;243296.92729736236;281500.0;-38203.072702637655
0.16800000000000012;1822303614.0;1631304210.0;36796070.0;38550.831799758824;38530.510484488324;846.6719051894543;188970.10502026207;291833.3333333333;-102863.22831307126
0.17200000000000013;1978732220.0;1788812939.0;33490675.0;39107.149650070496;39377.18238967778;613.7484350810482;139079.46257791808;300416.6666666667;-161337.2040887486
0.17600000000000013;2136692688.0;1948776662.0;29955558.0;39490.114955475256;39990.93082475883;404.3078193116671;95741.32635118985;307000.0;-211258.67364881013
0.18000000000000013;2295614942.0;2110357616.0;26335072.0;39730.56176580778;40395.238644070494;227.2844074047607;60111.70258313177;311916.6666666667;-251804.9640835349
0.18400000000000014;2455058294.0;2272847708.0;22767234.0;39860.83600874984;40622.523051475255;87.02977633252885;32568.56073551353;315083.3333333333;-282514.7725978198
0.18800000000000014;2614716100.0;2435685919.0;19372375.0;39914.44958702954;40709.55282780778;-15.704694057945744;13403.394569926604;317000.0;-303596.6054300734
0.19200000000000014;2774410100.0;2598461311.0;16254789.0;39923.49812799433;40693.84813374984;-80.44261972029199;2262.1352411970292;317750.0;-315487.864758803
0.19600000000000015;2934063543.0;2760914933.0;13495167.0;39913.35879625174;40613.405514029546;-109.61520503521751;-2534.8329356475006;317750.0;-320284.8329356475
0.20000000000000015;3093662600.0;2922930094.0;11133449.0;39899.76244060074;40503.79030899433;-111.69320574258745;-3399.0889127508126;317166.6666666667;-320565.7555794175
0.20400000000000015;3253221728.0;3084498482.0;9164118.0;39889.780019444865;40392.09710325174;-98.27758865100623;-2495.6052889683633;316250.0;-318745.60528896836
0.20800000000000016;3412760835.0;3245673760.0;7547968.0;39884.77502645344;40293.819514600735;-79.47687115587178;-1251.2482478559832;314916.6666666667;-316167.91491452267
0.21200000000000016;3572294599.0;3406531130.0;6229705.0;39883.43892497683;40214.34264344486;-61.69030199142435;-334.0253691530961;313083.3333333333;-313417.3587024864
0.21600000000000016;3731830271.0;3567141739.0;5152860.0;39883.91619402235;40152.65234145344;-47.640436476613104;119.31726138027443;310000.0;-309880.68273861974
0.22000000000000017;3891369605.0;3727561786.0;4268485.0;39884.83167897364;40105.011904976825;-37.55085595447599;228.87123782311392;305500.0;-305271.1287621769
0.22400000000000017;4050911660.0;3887831630.0;3537975.0;39885.51175112211;40067.46104902235;-30.496445048709575;170.01803711718821;299083.3333333333;-298913.3152962161
0.22800000000000017;4210454891.0;4047979488.0;2932172.0;39885.805925371875;40036.96460397364;-25.369456851527502;73.54356244104565;290666.6666666667;-290593.1231042256
0.23200000000000018;4369998174.0;4208025868.0;2429023.0;39885.81880586496;40011.59514712211;-21.341232750237396;3.22012327160337;280083.3333333333;-280080.1132100617
0.23600000000000018;4529541017.0;4367986883.0;2011291.0;39885.70888674746;39990.253914371875;-17.949595506914193;-27.479779375426006;267250.0;-267277.4797793754
0.24000000000000019;4689083387.0;4527876100.0;1664917.0;39885.59057650416;39972.30431886496;-15.004001117500593;-29.577560824691318;252500.0;-252529.5775608247
0.2440000000000002;4848625451.0;4687705301.0;1378086.0;39885.51420989964;39957.30031774746;-12.452043243298249;-19.091651131020626;236000.0;-236019.09165113102
0.2480000000000002;5008167395.0;4847484694.0;1140757.0;39885.484074611166;39944.84827450416;-10.281513604524662;-7.533822117693489;218166.66666666666;-218174.20048878435
0.25200000000000017;5167709339.0;5007222961.0;944434.0;39885.484056750785;39934.56676089964;-8.472024288472312;-0.0044650951167568564;199250.0;-199250.00446509512
0.25600000000000017;5327251331.0;5166927339.0;782000.0;39885.49605036448;39926.094736611165;-6.984679860383039;2.9984034244989743;179833.33333333334;-179830.33492990886
0.2600000000000002;5486793371.0;5326603779.0;647552.0;39885.508168145614;39919.11005675078;-5.769270386299468;3.0294452826638008;160250.0;-160246.97055471735
0.2640000000000002;5646334491.0;5486257142.0;536229.0;39885.27813749135;39913.34078636448;-4.774771218872047;-57.50766356686654;141083.33333333334;-141140.84099690022
0.2680000000000002;5805868530.0;5645891406.0;443085.0;39883.507843366286;39908.56601514561;-4.235222654264362;-442.57353126522503;122333.33333333333;-122775.90686459855
0.2720000000000002;5965376854.0;5805508729.0;359801.0;39877.079057452596;39904.330792491346;-5.351506125058222;-1607.1964784223383;104416.66666666667;-106023.86314508901
0.2760000000000002;6124817741.0;5965104646.0;272208.0;39860.21982534189;39898.97928636629;-10.195284913694195;-4214.808027676554;87166.66666666667;-91381.47469434323
0.2800000000000002;6284103161.0;6124659782.0;157959.0;39821.353105322596;39888.784001452594;-21.77193911070208;-9716.680004823502;71083.33333333333;-80800.01333815683
0.2840000000000002;6443062878.0;6284127830.0;-24669.0;39739.92729433449;39867.01206234189;-46.719724019298155;-20356.452747026196;55916.666666666664;-76273.11941369285
0.2880000000000002;6601414770.0;6443408999.0;-346121.0;39587.9711620834;39820.29233832259;-95.24824698809971;-37989.03306277316;42083.333333333336;-80072.36639610649
0.2920000000000002;6758746197.0;6602309175.0;-894405.0;39332.854985823345;39725.044091334494;-175.53234425109258;-63779.044065013295;29500.0;-93279.0440650133
0.2960000000000002;6914499103.0;6760507221.0;-1761024.0;38938.224622781716;39549.5117470834;-292.3807932600539;-98657.5907604074;18250.0;-116907.5907604074
0.3000000000000002;7067969250.0;6917535744.0;-3036641.0;38367.5349314979;39257.13095382335;-449.48189404162986;-142672.42282095322;8333.333333333334;-151005.75615428656
0.3040000000000002;7218327455.0;7072766340.0;-4797090.0;37589.54940939493;38807.64905978172;-646.3889982838155;-194496.380525743;-750.0;-193746.380525743
0.3080000000000002;7364651097.0;7225411380.0;-7083925.0;36580.90877779559;38161.2600614979;-876.3194271029715;-252160.15789983614;-9166.666666666666;-242993.49123316945
0.3120000000000002;7505959175.0;7374551142.0;-9900045.0;35327.01790697716;37284.94063439493;-1129.7337915993412;-313472.7177046061;-17583.333333333332;-295889.38437127275
0.3160000000000002;7641257273.0;7519171969.0;-13212794.0;33824.52273155393;36155.20684279559;-1396.3390778184257;-375623.79385580786;-26416.666666666668;-349207.12718914123
0.32000000000000023;7769588341.0;7658207440.0;-16950167.0;32082.76557812307;34758.86776497716;-1663.2022144232324;-435439.2883577148;-36000.0;-399439.2883577148
0.32400000000000023;7890071754.0;7790590102.0;-21001761.0;30120.85170035513;33095.66555055393;-1915.9756954308614;-490478.469441985;-46916.666666666664;-443561.8027753183
0.32800000000000024;8001928165.0;7915308861.0;-25237107.0;27964.101618871024;31179.68985512307;-2144.0337557679377;-539187.5203710269;-59333.333333333336;-479854.1870376936
0.33200000000000024;8104497572.0;8031451485.0;-29523320.0;25642.350527207444;29035.656099355132;-2341.0572404841078;-580437.7729158951;-73416.66666666667;-507021.10624922835
0.33600000000000024;8197248921.0;8138229880.0;-33732308.0;23187.836146399135;26694.598858871024;-2502.737575663581;-613628.5952020772;-89250.0;-524378.5952020772
0.34000000000000025;8279791034.0;8234997325.0;-37748404.0;20635.527265569468;24191.861283207443;-2627.2065088083073;-638077.2202074168;-106666.66666666667;-531410.55354075
0.34400000000000025;8351893953.0;8321255944.0;-41464910.0;18025.7287378379;21564.654774399136;-2712.1186388296665;-652449.6319328919;-125583.33333333333;-526866.2985995585
0.34800000000000025;8413510592.0;8396666088.0;-44772135.0;15404.159221253061;18852.53613556947;-2752.0092027315695;-655392.3791462098;-145500.0;-509892.3791462098
0.35200000000000026;8464809657.0;8461068195.0;-47557603.0;12824.765639764159;16100.5269328379;-2741.344640584839;-644848.3953722257;-166166.66666666666;-478681.72870555904
0.35600000000000026;8506228575.0;8514504924.0;-49695267.0;10354.728954923923;13359.182292253061;-2671.313133488902;-617509.1712100588;-187250.0;-430259.17121005885
0.36000000000000026;8538500435.0;8557256400.0;-51027825.0;8067.964490439372;10687.869158764159;-2527.3366788402354;-571691.1161211379;-208250.0;-363441.11612113786
0.36400000000000027;8562616627.0;8589898529.0;-51398094.0;6029.047820972951;8160.532479923923;-2302.6860314845517;-509729.16736660525;-228750.0;-280979.16736660525
0.36800000000000027;8579747653.0;8613329914.0;-50713287.0;4282.756294461936;5857.846448439372;-2009.4699684664206;-436572.8816277538;-248083.33333333334;-188489.5482944204
0.3720000000000003;8591156559.0;8628723419.0;-48975766.0;2852.226319147572;3848.376479972951;-1671.5781235110148;-357632.4938285909;-265750.0;-91882.4938285909
0.3760000000000003;8598114443.0;8637430612.0;-46274053.0;1739.4709480589097;2176.7983564619362;-1314.3563163143638;-278188.8427721656;-281250.0;3061.1572278343715
0.3800000000000003;8601826505.0;8640880380.0;-42765937.0;928.0154260298705;862.4420401475725;-961.9063830886626;-202863.8805072598;-294166.6666666667;91302.78615940688
0.3840000000000003;8603380395.0;8640482523.0;-38656018.0;388.4725211013093;-99.46434294109008;-634.7290050290392;-134885.7262321403;-304333.3333333333;169447.60710119302
0.3880000000000003;8603697356.0;8637545750.0;-34165355.0;79.24022133932814;-734.1933479701293;-346.44439592856133;-77308.0749404953;-311833.3333333333;234525.258392838
0.3920000000000003;8603470293.0;8633223200.0;-29525844.0;-56.765707009662165;-1080.6377438986906;-109.73332676198106;-34001.482087247576;-316833.3333333333;282831.8512460857
0.3960000000000003;8603129004.0;8628461716.0;-24991423.0;-85.32217155111718;-1190.3710706606716;58.974174651009434;-7139.1161353637535;-319666.6666666667;312527.5505313029
0.4000000000000003;8602871158.0;8623936129.0;-20807125.0;-64.46173291467505;-1131.3968960096622;151.36834945854514;5215.1096591105315;-320666.6666666667;325881.77632577723
0.4040000000000003;8602739734.0;8620016015.0;-17144857.0;-32.85583142624396;-980.0285465511171;178.33796263644206;7901.475372107773;-320333.3333333333;328234.8087054411
0.4080000000000003;8602703845.0;8616809253.0;-14069519.0;-8.972276418069537;-801.690583914675;163.84543548843112;5970.888752043606;-319333.3333333333;325304.2220853769
0.4120000000000003;8602715952.0;8614257873.0;-11554028.0;3.0267659408869183;-637.8451484262439;132.04966800817442;2999.760589739114;-317833.3333333333;320833.09392307245
0.4160000000000003;8602740036.0;8612234692.0;-9518740.0;6.020903947538772;-505.7954804180695;99.5164263589565;748.5345016629633;-316500.0;317248.53450166294
0.4200000000000003;8602758160.0;8610609576.0;-7869540.0;4.53101975617057;-406.279054059113;73.90973800665182;-372.4710478420503;-315000.0;314627.52895215794
0.4240000000000003;8602766148.0;8609280099.0;-6521939.0;1.9971448349828398;-332.36931605246116;56.45695880863178;-633.4687302969327;-313416.6666666667;312783.19793636975
0.4280000000000003;8602766647.0;8608176450.0;-5410302.0;0.12453477056948829;-275.9123572438294;45.26651607881223;-468.15251610333786;-311250.0;310781.84748389665
0.43200000000000033;8602763813.0;8607253867.0;-4487220.0;-0.7083817020485331;-230.64584116501715;37.819915935586664;-208.22911815450536;-308416.6666666667;308208.4375485122
0.43600000000000033;8602760693.0;8606482564.0;-3718751.0;-0.780056093240234;-192.82592522943048;32.211250527381964;-17.918597797925205;-304500.0;304482.0814022021
0.44000000000000034;8602758651.0;8605840106.0;-3079413.0;-0.5105347830491417;-160.61467470204852;27.41985960880831;67.38032754777306;-299083.3333333333;299150.7136608811
0.44400000000000034;8602753823.0;8605307327.0;-2548676.0;-1.2068582610991931;-133.1948150932402;23.091212310191082;-174.08086951251286;-291916.6666666667;291742.58579715417
0.44800000000000034;8602713910.0;8604866913.0;-2113090.0;-9.978245454590386;-110.10360278304913;18.03387452194994;-2192.8467983727983;-282833.3333333333;280640.4865349605
0.45200000000000035;8602518136.0;8604498635.0;-1784725.0;-48.94365247219069;-92.06972826109919;5.348307806508814;-9741.351754400077;-271750.0;262008.64824559994
0.45600000000000035;8601870701.0;8604151750.0;-1633614.0;-161.85871580243227;-86.72142045459037;-32.46763401760032;-28228.765832560395;-258666.66666666666;230437.90083410626
0.46000000000000035;8600229830.0;8603674994.0;-1804293.0;-410.21763815861743;-119.18905447219069;-120.25426033024158;-62089.73058904629;-243750.0;181660.2694109537
0.46400000000000036;8596804167.0;8602717221.0;-2487391.0;-856.4156677344943;-239.44331480243227;-277.73213635618515;-111549.50739396921;-227500.0;115950.49260603079
0.46800000000000036;8590630748.0;8600648520.0;-3844353.0;-1543.3548269866922;-517.1754511586174;-504.54739557587686;-171734.7898130495;-210416.66666666666;38681.876853617185
0.47200000000000036;8580674644.0;8596561629.0;-5930881.0;-2489.025683748038;-1021.7228467344943;-776.6598632521979;-236417.71419033644;-193333.33333333334;-43084.38085700308
0.47600000000000037;8565880654.0;8589368099.0;-8693455.0;-3698.4974276364887;-1798.3827099866921;-1064.4615387613458;-302367.9359721127;-176916.66666666666;-125451.26930544607
0.48000000000000037;8545187067.0;8577916723.0;-12036069.0;-5173.3964113230595;-2862.844248748038;-1353.2041458884505;-368724.7459216427;-162000.0;-206724.7459216427
0.4840000000000004;8517560791.0;8561052530.0;-15865463.0;-6906.568835089133;-4216.048394636488;-1639.5629256865714;-433293.10594151844;-148916.66666666666;-284376.43927485176
0.4880000000000004;8482067529.0;8537630085.0;-20069294.0;-8873.315114704434;-5855.61132032306;-1913.9371567660737;-491686.5699038251;-138166.66666666666;-353519.90323715843
0.4920000000000004;8437936136.0;8506551892.0;-24484363.0;-11032.847612764868;-7769.5484770891335;-2156.5942466153;-539883.1245151086;-130250.0;-409633.12451510865
0.4960000000000004;8384597200.0;8466847322.0;-28911186.0;-13334.733323630258;-9926.142723704434;-2349.8858870604345;-575471.4277163475;-125583.33333333333;-449888.0943830142
0.5000000000000003;8321704566.0;8417743208.0;-33146008.0;-15723.15782483187;-12276.028610764868;-2483.9830568653906;-597106.1253004028;-124583.33333333333;-472522.7919670694
0.5040000000000003;8249130938.0;8358703162.0;-36998596.0;-18143.40606756633;-14760.011667630259;-2554.0857852016106;-605062.0606836155;-127166.66666666667;-477895.3940169489
0.5080000000000003;8166932988.0;8289446773.0;-40315835.0;-20549.48657600613;-17314.09745283187;-2562.889519734461;-601520.1271099495;-133416.66666666666;-468103.46044328285
