Zeit[sec];Sollposition[°];Istposition[°];Positionsschleppfehler[°];Sollgeschwindigkeit[°/s];Istgeschwindigkeit[°/s];Geschwindigkeitsdifferenz[°/s];Sollbeschleunigung[°/s*s];Istbeschleunigung[°/s*s];Beschleunigungsdifferenz[°/s*s]
0.0;9817499999.0;9817499996.0;3.0;0.0;0.00017999999999999998;0.0;0.0;0.0;0.0
0.004;9817499999.0;9817499996.0;3.0;0.0;0.00017999999999999998;0.0;0.0;0.0;0.0
0.008;9817499999.0;9817499996.0;3.0;0.0;0.00017999999999999998;0.0;0.0;0.0;0.0
0.012;9817499999.0;9817499996.0;3.0;0.0;0.00017999999999999998;0.0;0.0;0.0;0.0
0.016;9817499999.0;9817499996.0;3.0;0.0;0.00017999999999999998;0.0;0.0;0.0;0.0
0.02;9817499999.0;9817499996.0;3.0;0.0;0.00017999999999999998;0.0;0.0;0.0;0.0
0.024;9817499999.0;9817499996.0;3.0;0.0;0.00017999999999999998;0.0;0.0;0.0;0.0
0.028;9817499999.0;9817499996.0;3.0;0.0;0.00017999999999999998;0.0;0.0;0.0;0.0
0.032;9817499999.0;9817499996.0;3.0;0.0;0.00017999999999999998;0.0;0.0;0.0;0.0
0.036000000000000004;9817499999.0;9817499996.0;3.0;0.0;0.00017999999999999998;0.0;0.0;0.0;0.0
0.04000000000000001;9817499999.0;9817499996.0;3.0;0.0;0.00017999999999999998;0.0;0.0;0.0;0.0
0.04400000000000001;9817499999.0;9817499996.0;3.0;0.0;0.00017999999999999998;0.0;0.0;0.0;0.0
0.048000000000000015;9817499999.0;9817499996.0;3.0;0.0;0.00017999999999999998;0.0;0.0;0.0;0.0
0.05200000000000002;9817497580.0;9817499996.0;3.0;-0.6046776386620968;0.00017999999999999998;0.0;-151.1694096655242;0.0;-151.1694096655242
0.05600000000000002;9817473476.0;9817499996.0;-2416.0;-6.026019541083486;0.00017999999999999998;-0.7498176386620967;-1355.3354756053473;0.0;-1355.3354756053473
0.060000000000000026;9817354999.0;9817496998.0;-23522.0;-29.619107994941047;-0.7496376386620968;-6.68770190242139;-5898.27211346439;0.0;-5898.27211346439
0.06400000000000003;9817027761.0;9817467249.0;-112250.0;-81.80948182044851;-7.437339541083486;-28.91676845385756;-13047.593456376866;0.0;-13047.593456376866
0.06800000000000003;9816165701.0;9817321833.0;-294072.0;-215.51502088811074;-36.354107994941046;-63.09969382550746;-33426.38476691556;-83.33333333333333;-33343.05143358222
0.07200000000000004;9814303360.0;9816924018.0;-758317.0;-465.5853623950021;-99.4538018204485;-161.56023906766222;-62517.58537672284;-333.3333333333333;-62184.25204338951
0.07600000000000004;9810893990.0;9815879962.0;-1576602.0;-852.3422910165037;-261.01404088811074;-299.1674415068914;-96689.2321553754;-1000.0;-95689.2321553754
0.08000000000000004;9805417843.0;9813639237.0;-2745247.0;-1369.036817473549;-560.1814823950021;-456.8756286215016;-129173.63161426132;-2416.6666666666665;-126756.96494759466
0.08400000000000005;9797425424.0;9809571009.0;-4153166.0;-1998.1046007863051;-1017.0571110165038;-601.1696664570452;-157266.94582818903;-4750.0;-152516.94582818903
0.08800000000000005;9786543978.0;9803098102.0;-5672678.0;-2720.3613119939155;-1618.226777473549;-720.2385033127559;-180564.17780190258;-8333.333333333334;-172230.84446856927
0.09200000000000005;9772492442.0;9793744241.0;-7200263.0;-3512.8839743884896;-2338.465280786305;-813.9118112076103;-198130.66559864354;-12916.666666666666;-185213.99893197688
0.09600000000000006;9755140996.0;9781134733.0;-8642291.0;-4337.86133271113;-3152.377091993915;-879.0443423945744;-206244.33958066005;-18583.333333333332;-187661.0062473267
0.10000000000000006;9734551164.0;9765009048.0;-9868052.0;-5147.457611169319;-4031.4214343884896;-898.5230183226404;-202399.06961454722;-24833.333333333332;-177565.73628121387
0.10400000000000006;9710961789.0;9745289271.0;-10738107.0;-5897.343470891426;-4929.94445271113;-861.799578458189;-187471.46493052674;-31583.333333333332;-155888.1315971934
0.10800000000000007;9684757648.0;9722122295.0;-11160506.0;-6551.034845485345;-5791.744031169319;-775.2297997221067;-163422.8436484798;-38416.666666666664;-125006.17698181311
0.11200000000000007;9656431829.0;9695854400.0;-11096752.0;-7081.454618972513;-6566.973830891426;-649.866134593919;-132604.94337179215;-45000.0;-87604.94337179216
0.11600000000000008;9626526032.0;9666987041.0;-10555212.0;-7476.448818469116;-7216.839965485345;-497.92737348716855;-98748.54987415075;-50916.666666666664;-47831.883207484076
0.12000000000000008;9595551839.0;9636127972.0;-9601940.0;-7743.547963456816;-7714.767338972513;-337.79787949660295;-66774.78624692504;-55916.666666666664;-10858.119580258368
0.12400000000000008;9563937858.0;9603917712.0;-8365873.0;-7903.494707326614;-8052.565218469116;-192.93512498770087;-39986.685967449375;-59833.333333333336;19846.64736588396
0.12800000000000009;9531972191.0;9570935711.0;-6997853.0;-7991.41634087224;-8245.500343456817;-77.86554386979697;-21980.408386406452;-62583.333333333336;40602.92494692688
0.1320000000000001;9499996539.0;9537642248.0;-5670057.0;-7993.912803144593;-8323.365887326614;-8.253873545625538;-624.1155680884276;-64166.666666666664;63542.55109857824
0.1360000000000001;9468016232.0;9504315769.0;-4319230.0;-7995.076383824333;-8331.61976087224;78.55315772764698;-290.8951699348563;-64833.333333333336;64542.43816339848
0.1400000000000001;9436076382.0;9471303503.0;-3287271.0;-7984.962004782806;-8253.066603144593;60.75395932026004;2528.594760381793;-64833.333333333336;67361.92809371513
0.1440000000000001;9404179199.0;9438534253.0;-2457871.0;-7974.295502914018;-8192.312643824333;59.878379041527296;2666.6254671970364;-64500.0;67166.62546719704
0.1480000000000001;9372309975.0;9406004516.0;-1825317.0;-7967.305626513314;-8132.434264782805;48.61974186878797;1747.4691001759766;-64000.0;65747.46910017598
0.1520000000000001;9340452955.0;9373669258.0;-1359283.0;-7964.254418405582;-8083.814522914017;34.95191640070334;762.8020269328317;-63583.333333333336;64346.13536026617
0.1560000000000001;9308597818.0;9341473808.0;-1020853.0;-7963.783858178814;-8048.862606513314;23.357008107731417;117.64005669215294;-63166.666666666664;63284.306723358815
0.16000000000000011;9276740159.0;9309371786.0;-773968.0;-7964.414599739903;-8025.5055984055825;15.283660226768916;-157.68539027226325;-62916.666666666664;62758.9812763944
0.16400000000000012;9244824912.0;9277330899.0;-590740.0;-7978.8112040736405;-8010.221938178814;10.362938438910533;-3599.1510834344353;-62750.0;59150.84891656556
0.16800000000000012;9212955244.0;9245331464.0;-506552.0;-7967.416566657696;-7999.858999739903;-9.345324333737153;2848.6593539860223;-62666.666666666664;65515.32602065269
0.17200000000000013;9181085170.0;9213294647.0;-339403.0;-7967.518267831823;-8009.20432407364;21.423577415944237;-25.4252935317254;-62583.333333333336;62557.90803980161
0.17600000000000013;9149215485.0;9181343525.0;-258355.0;-7967.420914530352;-7987.780746657696;4.761178825872776;24.338325367807556;-62416.666666666664;62441.004992034475
0.18000000000000013;9117346397.0;9149411447.0;-195962.0;-7967.271542420357;-7983.019567831823;3.840933301471523;37.34302749876406;-62416.666666666664;62454.00969416543
0.18400000000000014;9085477794.0;9117494733.0;-148336.0;-7967.150257602988;-7979.178634530352;3.0069321099945228;30.321204342271812;-62333.333333333336;62363.65453767561
0.18800000000000014;9053609480.0;9085590047.0;-112253.0;-7967.078212501158;-7976.171702420357;2.286264817369556;18.011275457411102;-62416.666666666664;62434.67794212408
0.19200000000000014;9021741301.0;9053694506.0;-85026.0;-7967.0443920913485;-7973.885437602988;1.7056651018292541;8.455102452444407;-62250.0;62258.45510245244
0.19600000000000015;8989873183.0;9021805787.0;-64486.0;-7967.029117176416;-7972.179772501158;1.2662204098096481;3.8187287332220876;-62166.666666666664;62170.48539539988
0.20000000000000015;8958005114.0;8989922133.0;-48950.0;-7967.016899343816;-7970.913552091349;0.9474349149331829;3.0544581500180357;-61833.333333333336;61836.38779148336
0.20400000000000015;8926137113.0;8958042269.0;-37155.0;-7966.999961748826;-7969.9661171764155;0.7199178326000037;4.234398747485102;-61250.0;61254.23439874749
0.20800000000000016;8894269204.0;8926165285.0;-28172.0;-7966.976640020407;-7969.2461993438155;0.5559175949902055;5.830432104630745;-59916.666666666664;59922.497098771295
0.21200000000000016;8862401409.0;8894290524.0;-21320.0;-7966.948360893576;-7968.690281748825;0.4344417284182782;7.06978170774164;-57500.0;57507.069781707745
0.21600000000000016;8830533739.0;8862417501.0;-16092.0;-7966.917233054855;-7968.255840020407;0.3419591268311706;7.781959680187356;-54000.0;54007.781959680186
0.22000000000000017;8798666198.0;8830545846.0;-12107.0;-7966.88482252532;-7967.913880893576;0.2702278387205297;8.102632383952368;-49250.0;49258.102632383954
0.22400000000000017;8766798789.0;8798675272.0;-9074.0;-7966.851877755713;-7967.643653054855;0.2143905295361037;8.236192401682274;-43750.0;43758.23619240168
0.22800000000000017;8734931514.0;8766805555.0;-6766.0;-7966.8185398269725;-7967.429262525319;0.17142476960634667;8.334482185091474;-37416.666666666664;37425.001148851756
0.23200000000000018;8703064373.0;8734936524.0;-5010.0;-7966.784663443058;-7967.257837755713;0.13869792874083942;8.469095978625774;-30750.0;30758.469095978624
0.23600000000000018;8671197372.0;8703068048.0;-3675.0;-7966.750056559706;-7967.119139826972;0.11397638391372311;8.651720838088295;-23833.333333333332;23841.98505417142
0.24000000000000019;8639330512.0;8671200028.0;-2656.0;-7966.71459409004;-7967.005163443058;0.09574688335305837;8.865617416404348;-17250.0;17258.865617416406
0.2440000000000002;8607463797.0;8639332391.0;-1879.0;-7966.678237153994;-7966.909416559705;0.08208246966569277;9.08923401152606;-11250.0;11259.089234011526
0.2480000000000002;8575597232.0;8607465082.0;-1285.0;-7966.641007297449;-7966.82733409004;0.07199693604525237;9.307464136327326;-6250.0;6259.307464136327
0.25200000000000017;8543730818.0;8575598061.0;-829.0;-7966.602952865081;-7966.755337153994;0.06458985654535354;9.513608091992865;-2333.3333333333335;2342.8469414253263
0.25600000000000017;8511864560.0;8543731299.0;-481.0;-7966.564125423718;-7966.690747297449;0.05893443236800522;9.706860340656931;250.0;-240.29313965934307
0.2600000000000002;8479998461.0;8511864772.0;-212.0;-7966.5245693342795;-7966.631812865081;0.05496744136326015;9.889022359629962;1916.6666666666667;-1906.7776443070368
0.2640000000000002;8448132522.0;8479998465.0;-4.0;-7966.484320646992;-7966.576845423718;0.0520360894379337;10.062171821800803;2583.3333333333335;-2573.2711615115327
0.2680000000000002;8416266747.0;8448132366.0;156.0;-7966.443410100686;-7966.52480933428;0.0498486872875219;10.227636576473742;2666.6666666666665;-2656.439030090193
0.2720000000000002;8384401138.0;8416266467.0;280.0;-7966.401866568639;-7966.474960646992;0.04835054630621016;10.385883011849728;2250.0;-2239.6141169881503
0.2760000000000002;8352535697.0;8384400761.0;377.0;-7966.359719342548;-7966.426610100686;0.04736353204680199;10.536806522850384;1750.0;-1739.4631934771496
0.2800000000000002;8320670428.0;8352535245.0;452.0;-7966.316999034921;-7966.379246568639;0.04664722609140881;10.680076906737668;1333.3333333333333;-1322.6532564265956
0.2840000000000002;8288805331.0;8320669915.0;513.0;-7966.273737576261;-7966.332599342548;0.046380307627259754;10.815364664949811;916.6666666666666;-905.8513020017168
0.2880000000000002;8256940410.0;8288804771.0;560.0;-7966.2299678434665;-7966.286219034921;0.04608145865950064;10.942433198579238;666.6666666666666;-655.7242334680874
0.2920000000000002;8225075666.0;8256939811.0;599.0;-7966.185723273506;-7966.240137576261;0.046109732794320735;11.061142490234488;500.0;-488.9388575097655
0.2960000000000002;8193211100.0;8225075035.0;631.0;-7966.141037604523;-7966.194027843467;0.046164569961547386;11.171417245577686;416.6666666666667;-405.495249421089
0.3000000000000002;8161346715.0;8193210444.0;656.0;-7966.0959447708165;-7966.147863273505;0.04618566898170684;11.273208426700876;333.3333333333333;-322.06012490663244
0.3040000000000002;8129482511.0;8161346038.0;677.0;-7966.050478869621;-7966.1016776045235;0.04635283370680554;11.36647529892798;250.0;-238.63352470107202
0.3080000000000002;8097618491.0;8129481817.0;694.0;-7966.004674179844;-7966.055324770817;0.0464859011963199;11.451172444139956;166.66666666666666;-155.2154942225267
0.3120000000000002;8065754655.0;8097617782.0;709.0;-7965.9585651595135;-7966.00883886962;0.04670468977656128;11.527255082683041;166.66666666666666;-155.13941158398362
0.3160000000000002;8033891005.0;8065753934.0;721.0;-7965.912186446627;-7965.962134179844;0.04682902033073333;11.594678221626964;83.33333333333333;-71.73865511170636
0.32000000000000023;8002027541.0;8033890273.0;732.0;-7965.865572831331;-7965.915305159513;0.04703871288620576;11.653403824084307;83.33333333333333;-71.67992950924902
0.32400000000000023;7970164265.0;8002026800.0;741.0;-7965.818759230094;-7965.868266446627;0.0471536152963381;11.703400309215795;0.0;11.703400309215795
0.32800000000000024;7938301176.0;7970163516.0;749.0;-7965.771780651923;-7965.8211128313305;0.04729360123656079;11.744644542659444;83.33333333333333;-71.58868879067388
0.33200000000000024;7906438276.0;7938300421.0;755.0;-7965.7246721685615;-7965.773819230094;0.04733857817063836;11.777120840406496;83.33333333333333;-71.55621249292683
0.33600000000000024;7874575564.0;7906437516.0;760.0;-7965.677468881556;-7965.726480651923;0.0474084833622328;11.800821751421608;83.33333333333333;-71.53251158191172
0.34000000000000025;7842713042.0;7874574800.0;764.0;-7965.630205894726;-7965.679072168561;0.04744328700508049;11.815746707497965;0.0;11.815746707497965
0.34400000000000025;7810850709.0;7842712274.0;768.0;-7965.582918294857;-7965.631628881556;0.04750298683029541;11.821899967117133;0.0;11.821899967117133
0.34800000000000025;7778988565.0;7810849938.0;771.0;-7965.5356411131;-7965.584125894726;0.047467599868468824;11.819295439408961;0.0;11.819295439408961
0.35200000000000026;7747126610.0;7778987792.0;773.0;-7965.488409307932;-7965.536658294857;0.047397181757332874;11.807951291984864;0.0;11.807951291984864
0.35600000000000026;7715264843.0;7747125835.0;775.0;-7965.441257737347;-7965.4892611131;0.04735180516854598;11.787892646225373;0.0;11.787892646225373
0.36000000000000026;7683403265.0;7715264068.0;775.0;-7965.394221128475;-7965.441909307931;0.04715157058490149;11.759152218019153;0.0;11.759152218019153
0.36400000000000027;7651541874.0;7683402489.0;776.0;-7965.347334059132;-7965.3947577373465;0.04709660887147038;11.72176733575725;0.0;11.72176733575725
0.36800000000000027;7619680670.0;7651541099.0;775.0;-7965.300630924046;-7965.347661128475;0.04682706934363523;11.675783771352144;0.0;11.675783771352144
0.3720000000000003;7587819652.0;7619679896.0;774.0;-7965.254145919519;-7965.300834059131;0.046643135085105314;11.621251131828103;0.0;11.621251131828103
0.3760000000000003;7555958818.0;7587818880.0;772.0;-7965.207913009937;-7965.254190924046;0.04636500452761538;11.558227395426002;83.33333333333333;-71.77510593790733
0.3800000000000003;7524098169.0;7555958049.0;769.0;-7965.161965903642;-7965.207825919519;0.046052909581703716;11.486776573747193;83.33333333333333;-71.84655675958614
0.3840000000000003;7492237702.0;7524097402.0;767.0;-7965.1163380327735;-7965.161773009937;0.04582710629438225;11.40696771722105;83.33333333333333;-71.92636561611228
0.3880000000000003;7460377416.0;7492236939.0;763.0;-7965.071062529145;-7965.115945903643;0.04538787086949014;11.318875907136317;0.0;11.318875907136317
0.3920000000000003;7428517310.0;7460376657.0;759.0;-7965.026172193864;-7965.070558032773;0.04503550362824171;11.222583820199361;0.0;11.222583820199361
0.3960000000000003;7396657382.0;7428516555.0;755.0;-7964.981699477184;-7965.025522529145;0.04465033528049389;11.118179170125586;0.0;11.118179170125586
0.4000000000000003;7364797630.0;7396656632.0;750.0;-7964.937676453524;-7964.980872193864;0.044172716680805024;11.005755914993642;0.0;11.005755914993642
0.4040000000000003;7332938052.0;7364796886.0;744.0;-7964.894134802158;-7964.9366994771835;0.04366302365997399;10.885412841389552;0.0;10.885412841389552
0.4080000000000003;7301078646.0;7332937314.0;738.0;-7964.851105774583;-7964.893036453524;0.04318165136555763;10.75725689383944;0.0;10.75725689383944
0.4120000000000003;7269219477.0;7301077915.0;731.0;-7964.791861050927;-7964.849854802158;0.042609027575053915;14.811180913966382;0.0;14.811180913966382
0.4160000000000003;7237361617.0;7269218687.0;790.0;-7964.464561190564;-7964.807245774583;0.06278472365647758;81.8249650906182;0.0;81.8249650906182
0.4200000000000003;7205509222.0;7237359710.0;1907.0;-7963.098311269308;-7964.7444610509265;0.39431986036197486;341.5624803139963;0.0;341.5624803139963
0.4240000000000003;7173671211.0;7205502310.0;6912.0;-7959.502320079388;-7964.3501411905645;1.6665499212558643;898.9977974802059;0.0;898.9977974802059
0.4280000000000003;7141863830.0;7173651576.0;19635.0;-7951.8450904858355;-7962.683591269309;4.3593711899211485;1914.3073983880186;0.0;1914.3073983880186
0.43200000000000033;7110115557.0;7141818280.0;45550.0;-7937.0677289340365;-7958.3242200793875;9.212129593552163;3694.340387949751;0.0;3694.340387949751
0.43600000000000033;7078470056.0;7110021832.0;93725.0;-7911.374876339148;-7949.112090485835;17.667861551798524;6423.213148722198;83.33333333333333;6339.879815388865
0.44000000000000034;7046984336.0;7078296056.0;174000.0;-7871.429790599999;-7931.444228934037;30.509352594888696;9986.271434787113;166.66666666666666;9819.604768120447
0.44400000000000034;7015724356.0;7046692317.0;292019.0;-7814.994581823886;-7900.934876339148;47.026225739148686;14108.802194028385;333.3333333333333;13775.468860695051
0.44800000000000034;6984761562.0;7015276683.0;447673.0;-7740.698106341502;-7853.908650599999;65.77444877611379;18574.11887059584;583.3333333333334;17990.785537262505
0.45200000000000035;6954181153.0;6984124147.0;637415.0;-7645.101779428734;-7788.134201823886;85.68099548238297;23899.081728192185;916.6666666666666;22982.41506152552
0.45600000000000035;6924105371.0;6953314335.0;866818.0;-7518.945204546689;-7702.453206341503;109.36050691276887;31539.14372051122;1416.6666666666667;30122.477053844552
0.46000000000000035;6894711601.0;6922941965.0;1163406.0;-7348.442090746846;-7593.092699428734;143.95185488204515;42625.778449960766;2083.3333333333335;40542.44511662743
0.46400000000000036;6866238908.0;6893145402.0;1566199.0;-7118.173015767473;-7449.140844546689;194.67069379984332;57567.268744843204;3000.0;54567.268744843204
0.46800000000000036;6838993072.0;6864127522.0;2111386.0;-6811.458748231766;-7254.470150746845;262.98029497937205;76678.5668839268;4166.666666666667;72511.90021726013
0.47200000000000036;6813342446.0;6836161563.0;2831509.0;-6412.656088136199;-6991.489855767473;349.92164753570796;99700.66502389159;5750.0;93950.66502389159
0.47600000000000037;6789686164.0;6809595291.0;3747155.0;-5914.07019772901;-6641.568208231765;453.74142009556635;124646.47260179732;7833.333333333333;116813.13926846399
0.48000000000000037;6768398752.0;6784843984.0;4842180.0;-5321.852741893149;-6187.826788136199;564.2873904071894;148054.36395896526;10666.666666666666;137387.6972922986
0.4840000000000004;6749785811.0;6762349827.0;6048925.0;-4653.235025640105;-5623.53939772901;664.6221558358602;167154.42906326096;14166.666666666666;152987.7623965943
0.4880000000000004;6734052570.0;6742514159.0;7271652.0;-3933.3100494515797;-4958.917241893149;741.981336253044;179981.24404713133;18583.333333333332;161397.910713798
0.4920000000000004;6721266994.0;6725646416.0;8406154.0;-3196.393918439124;-4216.935905640105;787.9950961885256;184229.03275311398;23666.666666666668;160562.36608644732
0.4960000000000004;6711344540.0;6711930653.0;9336341.0;-2480.613445937815;-3428.9408094515798;792.727351012456;178945.11812532722;29416.666666666668;149528.45145866054
0.5000000000000003;6704069050.0;6701385800.0;9958740.0;-1818.8722827204138;-2636.2134584391238;753.1244125013086;165435.2908043503;35416.666666666664;130018.62413768364
0.5040000000000003;6699118144.0;6693853444.0;10215606.0;-1237.726407681755;-1883.0890459378152;677.1531232174013;145286.46875966468;41500.0;103786.46875966467
0.5080000000000003;6696073236.0;6689029701.0;10088443.0;-761.2270791165912;-1205.9359227204138;573.5160950386587;119124.83214129097;47333.333333333336;71791.49880795763
