Zeit[sec];Sollposition[°];Istposition[°];Positionsschleppfehler[°];Sollgeschwindigkeit[°/s];Istgeschwindigkeit[°/s];Geschwindigkeitsdifferenz[°/s];Sollbeschleunigung[°/s*s];Istbeschleunigung[°/s*s];Beschleunigungsdifferenz[°/s*s]
0.0;0.0;2.0;-2.0;-0.0;-0.000192;0.0;0.0;0.0;0.0
0.004;0.0;2.0;-2.0;-0.0;-0.000192;0.0;0.0;0.0;0.0
0.008;0.0;2.0;-2.0;-0.0;-0.000192;0.0;0.0;0.0;0.0
0.012;0.0;2.0;-2.0;-0.0;-0.000192;0.0;0.0;0.0;0.0
0.016;0.0;2.0;-2.0;-0.0;-0.000192;0.0;0.0;0.0;0.0
0.02;0.0;2.0;-2.0;-0.0;-0.000192;0.0;0.0;0.0;0.0
0.024;0.0;2.0;-2.0;-0.0;-0.000192;0.0;0.0;0.0;0.0
0.028;0.0;2.0;-2.0;-0.0;-0.000192;0.0;0.0;0.0;0.0
0.032;0.0;2.0;-2.0;-0.0;-0.000192;0.0;0.0;0.0;0.0
0.036000000000000004;0.0;2.0;-2.0;-0.0;-0.000192;0.0;0.0;0.0;0.0
0.04000000000000001;0.0;2.0;-2.0;-0.0;-0.000192;0.0;0.0;0.0;0.0
0.04400000000000001;0.0;2.0;-2.0;-0.0;-0.000192;0.0;0.0;0.0;0.0
0.048000000000000015;0.0;2.0;-2.0;-0.0;-0.000192;0.0;0.0;0.0;0.0
0.05200000000000002;0.0;2.0;-2.0;-0.0;-0.000192;0.0;0.0;0.0;0.0
0.05600000000000002;0.0;2.0;-2.0;-0.0;-0.000192;0.0;0.0;0.0;0.0
0.060000000000000026;0.0;2.0;-2.0;-0.0;-0.000192;0.0;0.0;0.0;0.0
0.06400000000000003;0.0;2.0;-2.0;-4.3545562972424124e-24;-0.000192;0.0;-1.088639074310603e-21;0.0;-1.088639074310603e-21
0.06800000000000003;0.0;2.0;-2.0;-3.4686970982608526e-23;-0.000192;0.0;-7.583103671341529e-21;0.0;-7.583103671341529e-21
0.07200000000000004;0.0;2.0;-2.0;-1.352174960203932e-22;-0.000192;0.0;-2.5132631259446168e-20;0.0;-2.5132631259446168e-20
0.07600000000000004;0.0;2.0;-2.0;-3.434493339008069e-22;-0.000192;0.0;-5.205795947010343e-20;0.0;-5.205795947010343e-20
0.08000000000000004;0.0;2.0;-2.0;-6.3600527314003625e-22;-0.000192;0.0;-7.313898480980734e-20;0.0;-7.313898480980734e-20
0.08400000000000005;48642.0;2.0;-2.0;12.160514997524356;-0.000192;0.0;3040.1287493810887;0.0;3040.1287493810887
0.08800000000000005;71342.0;2.0;48640.0;5.675051208652127;-0.000192;16.830146997524352;-1621.365947218057;0.0;-1621.365947218057
0.09200000000000005;94913.0;67321.0;4021.0;5.892761073699881;16.829954997524354;-10.768887788872227;54.42746626193839;0.0;54.42746626193839
0.09600000000000006;118659.0;91565.0;3348.0;5.9365073716933505;6.061067208652127;0.1531018650477538;10.93657449836738;0.0;10.93657449836738
0.10000000000000006;141973.0;116421.0;2238.0;5.828583405840996;6.214169073699881;-0.06281370200653047;-26.98099146308852;0.0;-26.98099146308852
0.10400000000000006;162988.0;141026.0;947.0;5.253704966633481;6.1513553716933504;-0.2318599658523537;-143.71960980187893;83.33333333333333;-227.05294313521225
0.10800000000000007;179334.0;164703.0;-1715.0;4.086617155190076;5.919495405840997;-0.8304304392075164;-291.7719528608511;83.33333333333333;-375.10528619418443
0.11200000000000007;189355.0;185059.0;-5725.0;2.505130740217045;5.08906496663348;-1.552047811443404;-395.3716037432579;83.33333333333333;-478.7049370765912
0.11600000000000008;191745.0;199207.0;-9852.0;0.5975795585952581;3.5370171551900764;-1.9776784149730315;-476.8877954054467;0.0;-476.8877954054467
0.12000000000000008;185707.0;205444.0;-13699.0;-1.5095120578316463;1.5593387402170449;-2.2768631816217866;-526.7729041067261;0.0;-526.7729041067261
0.12400000000000008;171859.0;202574.0;-16867.0;-3.462085984190193;-0.7175244414047419;-2.411219616426904;-488.1434815896367;0.0;-488.1434815896367
0.12800000000000009;151984.0;190060.0;-18201.0;-4.9686509514068;-3.1287440578316463;-2.0806379263585466;-376.6412418041517;0.0;-376.6412418041517
0.1320000000000001;128162.0;169223.0;-17239.0;-5.955685009688663;-5.209381984190193;-1.4142129672166064;-246.75851457046582;0.0;-246.75851457046582
0.1360000000000001;102430.0;142729.0;-14567.0;-6.432926015767979;-6.623594951406799;-0.7305220582818635;-119.310251519829;0.0;-119.310251519829
0.1400000000000001;76768.0;113313.0;-10883.0;-6.415451952746387;-7.354117009688663;-0.12357700607931577;4.368515755398095;-83.33333333333333;87.70184908873142
0.1440000000000001;52726.0;83403.0;-6635.0;-6.010551938777436;-7.4776940157679785;0.42528206302159166;101.22500349223773;-83.33333333333333;184.55833682557105
0.1480000000000001;0.0;55194.0;-2468.0;-13.181586567637465;-7.052411952746387;0.8049320139689513;-1792.7586572150074;-83.33333333333333;-1709.425323881674
0.1520000000000001;0.0;30205.0;-30205.0;2.936257600664882e-25;-6.247479938777436;-9.833786628860029;3295.3966419093663;0.0;3295.3966419093663
0.1560000000000001;0.0;-34120.0;34120.0;3.672598224171256e-25;-16.081266567637464;19.356786567637464;1.8408515587659353e-23;0.0;1.8408515587659353e-23
0.16000000000000011;0.0;-21018.0;21018.0;2.5623933859775932e-25;3.27552;-1.2577920000000002;-2.7755120954841567e-23;0.0;-2.7755120954841567e-23
0.16400000000000012;0.0;-12948.0;12948.0;1.1349098259988864e-25;2.017728;-0.7747199999999999;-3.568708899946767e-23;0.0;-3.568708899946767e-23
0.16800000000000012;0.0;-7976.0;7976.0;1.3048635001814634e-26;1.2430080000000001;-0.47731200000000007;-2.51105868995185e-23;0.0;-2.51105868995185e-23
0.17200000000000013;0.0;-4914.0;4914.0;-3.1718013209563097e-26;0.765696;-0.29395200000000005;-1.1191662052844432e-23;0.0;-1.1191662052844432e-23
0.17600000000000013;0.0;-3028.0;3028.0;-3.7017492369612474e-26;0.471744;-0.181056;-1.3248697900123443e-24;0.0;-1.3248697900123443e-24
0.18000000000000013;0.0;-1866.0;1866.0;-2.4615112641758193e-26;0.290688;-0.11155199999999998;3.1005949319635703e-24;0.0;3.1005949319635703e-24
0.18400000000000014;0.0;-1150.0;1150.0;-1.0043596809850683e-26;0.17913600000000002;-0.06873600000000002;3.642878957976877e-24;0.0;3.642878957976877e-24
0.18800000000000014;0.0;-709.0;709.0;-3.1386879936464677e-28;0.1104;-0.042336;2.432432002621509e-24;0.0;2.432432002621509e-24
0.19200000000000014;0.0;-437.0;437.0;3.6825965170855734e-27;0.068064;-0.026111999999999996;9.99116329112555e-25;0.0;9.99116329112555e-25
0.19600000000000015;0.0;-270.0;270.0;3.833856269535734e-27;0.041952;-0.016032;3.781493811254022e-26;0.0;3.781493811254022e-26
0.20000000000000015;0.0;-167.0;167.0;2.3949847147121727e-27;0.025920000000000002;-0.009888000000000001;-3.5971788870589037e-25;0.0;-3.5971788870589037e-25
0.20400000000000015;0.0;-103.0;103.0;8.854131810360456e-28;0.016032;-0.006144;-3.7739288341903177e-25;0.0;-3.7739288341903177e-25
0.20800000000000016;0.0;-64.0;64.0;-6.221881406400147e-29;0.009888000000000001;-0.003744000000000001;-2.3690799877501178e-25;0.0;-2.3690799877501178e-25
0.21200000000000016;0.0;-40.0;40.0;-4.156140950404385e-28;0.006144;-0.002304;-8.834882024410925e-26;0.0;-8.834882024410925e-26
0.21600000000000016;0.0;-25.0;25.0;-3.9415169890689995e-28;0.00384;-0.0014399999999999999;5.365599033384626e-27;0.0;5.365599033384626e-27
0.22000000000000017;0.0;-16.0;16.0;-2.3170499421006832e-28;0.0024000000000000002;-0.0008640000000000002;4.061167617420791e-26;0.0;4.061167617420791e-26
0.22400000000000017;0.0;-10.0;10.0;-7.652943724819572e-29;0.001536;-0.000576;3.879388924046815e-26;0.0;3.879388924046815e-26
0.22800000000000017;0.0;-7.0;7.0;1.5150966364936183e-29;0.00096;-0.00028799999999999995;2.2920100903282974e-26;0.0;2.2920100903282974e-26
0.23200000000000018;0.0;-5.0;5.0;4.5738346992142117e-29;0.0006720000000000001;-0.00019200000000000006;7.646845156801484e-27;-83.33333333333333;83.33333333333333
0.23600000000000018;0.0;-4.0;4.0;4.005012888418068e-29;0.00048;-9.6e-05;-1.4220545269903597e-27;-83.33333333333333;83.33333333333333
0.24000000000000019;0.0;-3.0;3.0;2.213863869556086e-29;0.000384;-9.6e-05;-4.477872547154954e-27;-83.33333333333333;83.33333333333333
0.2440000000000002;-46219.0;-2.0;2.0;-11.554764582851382;0.000288;-9.6e-05;-2888.6911457128454;0.0;-2888.6911457128454
0.2480000000000002;-46998.0;-2.0;-46217.0;-0.19483049179413267;0.000192;-15.991788582851383;2839.9835227643125;0.0;2839.9835227643125
0.25200000000000017;-47751.0;-63968.0;16970.0;-0.1881910772351885;-15.991596582851383;17.42588609105725;1.6598536397360446;-83.33333333333333;84.99318697306937
0.25600000000000017;-48476.0;-58231.0;10480.0;-0.18145188435034254;1.4342895082058675;-0.6164005854410559;1.6847982212114878;0.0;1.6847982212114878
0.2600000000000002;-49175.0;-54960.0;6484.0;-0.17461821806741365;0.8178889227648116;-0.37687680711515414;1.7084165707322228;0.0;1.7084165707322228
0.2640000000000002;-49846.0;-53196.0;4021.0;-0.16769137924628952;0.4410121156496575;-0.2296143337170711;1.7317097052810329;83.33333333333333;-81.6016236280523
0.2680000000000002;-50488.0;-52351.0;2505.0;-0.1606722214429099;0.21139778193258638;-0.1386091611788759;1.7547894508449027;0.0;1.7547894508449027
0.2720000000000002;-51103.0;-52060.0;1572.0;-0.15356269253047575;0.07278862075371048;-0.0825488421966204;1.7773822281085399;0.0;1.7773822281085399
0.2760000000000002;-51688.0;-52099.0;996.0;-0.1463659919127591;-0.009760221442909917;-0.048186471087565824;1.799175154429164;83.33333333333333;-81.53415817890416
0.2800000000000002;-52244.0;-52330.0;642.0;-0.13908614187634924;-0.05794669253047574;-0.02678729938228336;1.819962509102463;83.33333333333333;-81.51337082423086
0.2840000000000002;-52771.0;-52668.0;424.0;-0.13172751186649148;-0.0847339919127591;-0.013648149963590137;1.8396575024644397;83.33333333333333;-81.4936758308689
0.2880000000000002;-53269.0;-53061.0;290.0;-0.12429451756350214;-0.09838214187634924;-0.005505369990142242;1.858248575747335;0.0;1.858248575747335
0.2920000000000002;-53736.0;-53476.0;207.0;-0.11679150690098095;-0.10388751186649148;-0.0005350056970106626;1.8757526656302987;0.0;1.8757526656302987
0.2960000000000002;-54173.0;-53893.0;157.0;-0.10922276126521448;-0.10442251756350214;0.0027030106625211964;1.8921864089416172;0.0;1.8921864089416172
0.3000000000000002;-54579.0;-54299.0;126.0;-0.10159253794630131;-0.10171950690098094;0.0045927456357664626;1.9075558297282913;0.0;1.9075558297282913
0.3040000000000002;-54955.0;-54687.0;108.0;-0.09390510941827333;-0.09712676126521448;0.005902223318913172;1.9218571320069946;0.0;1.9218571320069946
0.3080000000000002;-55299.0;-55051.0;96.0;-0.08616478423292591;-0.09122453794630131;0.006535428528027978;1.935081296336856;0.0;1.935081296336856
0.3120000000000002;-55613.0;-55389.0;90.0;-0.07837591148641773;-0.08468910941827333;0.007164325185347417;1.9472181866270442;0.0;1.9472181866270442
0.3160000000000002;-55895.0;-55699.0;86.0;-0.07054287640662275;-0.07752478423292591;0.0074048727465081815;1.9582587699487446;0.0;1.9582587699487446
0.32000000000000023;-56146.0;-55979.0;84.0;-0.06267009348534228;-0.07011991148641773;0.0076410350797949805;1.9681957303201194;0.0;1.9681957303201194
0.32400000000000023;-56365.0;-56228.0;82.0;-0.05476200056826273;-0.06247887640662275;0.00768078292128048;1.9770232292698875;0.0;1.9770232292698875
0.32800000000000024;-56552.0;-56447.0;82.0;-0.04682305472527074;-0.05479809348534227;0.007908092917079543;1.984736460747996;0.0;1.984736460747996
0.33200000000000024;-56707.0;-56634.0;82.0;-0.038857729444084235;-0.04689000056826273;0.007938945842991985;1.9913313202966267;0.0;1.9913313202966267
0.33600000000000024;-56831.0;-56789.0;82.0;-0.03087051241887514;-0.038951054725270745;0.00796532528118651;1.996804256302274;0.0;1.996804256302274
0.34000000000000025;-56922.0;-56912.0;81.0;-0.02286590341693665;-0.030985729444084235;0.007891217025209094;2.0011522504846226;0.0;2.0011522504846226
0.34400000000000025;-56982.0;-57004.0;82.0;-0.014848411997161455;-0.02309451241887514;0.008100609001938493;2.0043728549437985;0.0;2.0043728549437985
0.34800000000000025;-57009.0;-57063.0;81.0;-0.006822555059213147;-0.014993903416936648;0.007921491419775193;2.006464234487077;0.0;2.006464234487077
0.35200000000000026;-57004.0;-57091.0;82.0;0.0012071457059755872;-0.007072411997161455;0.00812185693794831;2.0074251912971834;0.0;2.0074251912971834
0.35600000000000026;-56967.0;-57087.0;83.0;0.00923616640272569;0.0010494449407868539;0.008125700765188731;2.0072551741875255;0.0;2.0072551741875255
0.36000000000000026;-56898.0;-57051.0;84.0;0.017259983510476775;0.009175145705975586;0.008125020696750106;2.0059542769377714;0.0;2.0059542769377714
0.36400000000000027;-56797.0;-56982.0;84.0;0.025274076446617746;0.017300166402725692;0.008023817107751081;2.0035232340352427;0.0;2.0035232340352427
0.36800000000000027;-56664.0;-56881.0;84.0;0.03327393011558799;0.025323983510476773;0.00801409293614097;1.9999634172425613;0.0;1.9999634172425613
0.3720000000000003;-56499.0;-56748.0;84.0;0.041255037448748214;0.033338076446617744;0.007999853668970248;1.9952768332900557;0.0;1.9952768332900557
0.3760000000000003;-56302.0;-56583.0;84.0;0.04921290194163267;0.04133793011558799;0.007981107333160223;1.9894661232211144;0.0;1.9894661232211144
0.3800000000000003;-56074.0;-56386.0;84.0;0.057143040182918096;0.049319037448748215;0.007957864492884457;1.9825345603213564;0.0;1.9825345603213564
0.3840000000000003;-55813.0;-56157.0;83.0;0.065040984380174;0.05727690194163267;0.00783413824128542;1.9744860493139758;0.0;1.9744860493139758
0.3880000000000003;-55522.0;-55897.0;84.0;0.0729022848787099;0.06511104018291809;0.007993944197255909;1.9653251246339738;0.0;1.9653251246339738
0.3920000000000003;-55199.0;-55605.0;83.0;0.08072251267051929;0.073104984380174;0.007765300498535896;1.9550569479523487;0.0;1.9550569479523487
0.3960000000000003;-54845.0;-55282.0;83.0;0.08849726188343854;0.0808702848787099;0.007820227791809395;1.9436873032298123;0.0;1.9436873032298123
0.4000000000000003;-54460.0;-54928.0;83.0;0.09622215227292796;0.08869051267051929;0.007774749212919249;1.9312225973723562;0.0;1.9312225973723562
0.4040000000000003;-54044.0;-54543.0;83.0;0.1038928316820158;0.09646526188343854;0.007724890389489425;1.9176698522719582;0.0;1.9176698522719582
0.4080000000000003;-53598.0;-54127.0;83.0;0.111504978493666;0.10419015227292797;0.007670679409087833;1.9030367029125514;0.0;1.9030367029125514
0.4120000000000003;-53122.0;-53680.0;82.0;0.11905430407341361;0.1118608316820158;0.007516146811650207;1.8873313949369017;0.0;1.8873313949369017
0.4160000000000003;-52616.0;-53203.0;81.0;0.1265365551746609;0.119376978493666;0.007453325579747608;1.870562775311821;0.0;1.870562775311821
0.4200000000000003;-52080.0;-52696.0;80.0;0.13394751634243435;0.1268303040734136;0.007386251101247271;1.852740291943364;0.0;1.852740291943364
0.4240000000000003;-51515.0;-52160.0;80.0;0.14128301228705795;0.13421655517466088;0.0074109611677734555;1.8338739861558997;0.0;1.8338739861558997
0.4280000000000003;-50921.0;-51594.0;79.0;0.14853891023232882;0.14162751634243434;0.007239495944623614;1.813974486317718;0.0;1.813974486317718
0.43200000000000033;-50298.0;-50999.0;78.0;0.15571112224968192;0.14886701228705795;0.00715989794527086;1.7930530043382755;0.0;1.7930530043382755
0.43600000000000033;-49647.0;-50375.0;77.0;0.16279560756188322;0.1560269102323288;0.007076212017353117;1.7711213280503235;0.0;1.7711213280503235
0.44000000000000034;-48968.0;-49723.0;76.0;0.16978837480827483;0.16310312224968193;0.006988485312201281;1.7481918115979032;0.0;1.7481918115979032
0.44400000000000034;-48261.0;-49043.0;75.0;0.17668548430432982;0.1700916075618832;0.006896767246391627;1.724277374013747;0.0;1.724277374013747
0.44800000000000034;-47527.0;-48336.0;75.0;0.18348305026529055;0.17698837480827484;0.006897109496054987;1.6993914902401832;0.0;1.6993914902401832
0.45200000000000035;-46766.0;-47601.0;74.0;0.19017724297941913;0.18388548430432983;0.00670156596096072;1.6735481785321444;0.0;1.6735481785321444
0.45600000000000035;-45979.0;-46839.0;73.0;0.19676429098183756;0.19058705026529055;0.006598192714128592;1.6467620006046095;0.0;1.6467620006046095
0.46000000000000035;0.0;-46051.0;72.0;11.494961700232373;0.19718524297941914;0.006491048002418426;2824.549352312634;0.0;2824.549352312634
0.46400000000000036;0.0;-45237.0;45237.0;8.930173681136185e-41;0.20367629098183757;15.634037409250537;-2873.7404250580935;0.0;-2873.7404250580935
0.46800000000000036;0.0;18113.0;-18113.0;9.657112483422714e-41;15.837713700232374;-17.576561700232375;1.817347005716322e-39;0.0;1.817347005716322e-39
0.47200000000000036;0.0;11158.0;-11158.0;6.174071458864968e-41;-1.738848;0.6676799999999998;-8.707602561394363e-39;0.0;-8.707602561394363e-39
0.47600000000000037;0.0;6874.0;-6874.0;2.3750349971326324e-41;-1.0711680000000001;0.4112640000000001;-9.49759115433084e-39;0.0;-9.49759115433084e-39
0.48000000000000037;0.0;4235.0;-4235.0;-6.575578694843827e-43;-0.659904;0.253344;-6.101976960202677e-39;0.0;-6.101976960202677e-39
0.4840000000000004;0.0;2609.0;-2609.0;-1.0121247218140553e-41;-0.40656000000000003;0.156096;-2.3659223371640427e-39;0.0;-2.3659223371640427e-39
0.4880000000000004;0.0;1608.0;-1608.0;-9.936344115238676e-42;-0.250464;0.09609600000000001;4.622577572546916e-41;0.0;4.622577572546916e-41
0.4920000000000004;0.0;991.0;-991.0;-5.981076016702772e-42;-0.154368;0.05923200000000001;9.888170246339762e-40;0.0;9.888170246339762e-40
0.4960000000000004;0.0;611.0;-611.0;-2.0693665074601802e-42;-0.095136;0.03648;9.779273773106479e-40;0.0;9.779273773106479e-40
0.5000000000000003;0.0;377.0;-377.0;2.9688755273707405e-43;-0.058656;0.022463999999999998;5.915635150493135e-40;0.0;5.915635150493135e-40
0.5040000000000003;0.0;233.0;-233.0;1.1232803382741951e-42;-0.036192;0.013824000000000003;2.0659819638428025e-40;0.0;2.0659819638428025e-40
0.5080000000000003;0.0;144.0;-144.0;1.013586057044643e-42;-0.022368;0.008544;-2.742357030738802e-41;0.0;-2.742357030738802e-41
0.5120000000000003;0.0;89.0;-89.0;5.739427329929822e-43;-0.013824;0.00528;-1.0991083101291521e-40;0.0;-1.0991083101291521e-40
0.5160000000000003;0.0;55.0;-55.0;1.7464217080095233e-43;-0.008544;0.0032639999999999995;-9.982514054800748e-41;0.0;-9.982514054800748e-41
0.5200000000000004;0.0;34.0;-34.0;-5.260506324136511e-44;-0.00528;0.002016;-5.681180851057936e-41;0.0;-5.681180851057936e-41
0.5240000000000004;0.0;21.0;-21.0;-1.2255719238080126e-43;-0.003264;0.001248;-1.748803228485904e-41;0.0;-1.748803228485904e-41
0.5280000000000004;0.0;13.0;-13.0;-1.0253902997554733e-43;-0.002016;0.000768;5.004540601313483e-42;0.0;5.004540601313483e-42
0.5320000000000004;0.0;9.0;-9.0;-5.45098642736131e-44;-0.001248;0.000384;1.2007291425483555e-41;0.0;1.2007291425483555e-41
0.5360000000000004;0.0;6.0;-6.0;-1.4087762399723139e-44;-0.000864;0.00028799999999999995;1.0105525468472491e-41;0.0;1.0105525468472491e-41
0.5400000000000004;0.0;4.0;-4.0;7.513909408169727e-45;-0.000576;0.000192;5.400417951973216e-42;0.0;5.400417951973216e-42
0.5440000000000004;0.0;3.0;-3.0;1.3181570705781198e-44;-0.000384;9.6e-05;1.4169153244028678e-42;0.0;1.4169153244028678e-42
0.5480000000000004;0.0;2.0;-2.0;1.0289367273022148e-44;-0.000288;9.6e-05;-7.230508581897625e-43;0.0;-7.230508581897625e-43
0.5520000000000004;0.0;2.0;-2.0;5.11799566975971e-45;-0.000192;0.0;-1.2928429008156095e-42;0.0;-1.2928429008156095e-42
0.5560000000000004;0.0;2.0;-2.0;1.0591293081929885e-45;-0.000192;0.0;-1.0147165903916803e-42;0.0;-1.0147165903916803e-42
0.5600000000000004;0.0;2.0;-2.0;-9.710821108772481e-46;-0.000192;0.0;-5.0755285476755915e-43;0.0;-5.0755285476755915e-43
0.5640000000000004;0.0;2.0;-2.0;-1.4002701603950221e-45;-0.000192;0.0;-1.072970123794435e-43;0.0;-1.072970123794435e-43
0.5680000000000004;0.0;2.0;-2.0;-1.024181415551805e-45;-0.000192;0.0;9.402218621080429e-44;0.0;9.402218621080429e-44
0.5720000000000004;0.0;2.0;-2.0;-4.743059499965633e-46;-0.000192;0.0;1.3746886638881042e-43;0.0;1.3746886638881042e-43
0.5760000000000004;0.0;2.0;-2.0;-7.002819575763001e-47;-0.000192;0.0;1.0106943855973331e-43;0.0;1.0106943855973331e-43
0.5800000000000004;0.0;2.0;-2.0;1.1833395279096264e-46;-0.000192;0.0;4.709053713714817e-44;0.0;4.709053713714817e-44
0.5840000000000004;0.0;2.0;-2.0;1.471227302618316e-46;-0.000192;0.0;7.197194367717239e-45;0.0;7.197194367717239e-45
0.5880000000000004;57850.0;2.0;-2.0;14.462642764536378;-0.000192;0.0;3615.6606911340946;0.0;3615.6606911340946
0.5920000000000004;80723.0;2.0;57848.0;5.718234541702987;-0.000192;20.016242764536376;-2186.1020557083475;0.0;-2186.1020557083475
0.5960000000000004;105114.0;80066.0;657.0;6.097868478605588;20.016050764536377;-14.23474422283339;94.90848422565024;0.0;94.90848422565024
