Zeit[sec];Sollposition[°];Istposition[°];Positionsschleppfehler[°];Sollgeschwindigkeit[°/s];Istgeschwindigkeit[°/s];Geschwindigkeitsdifferenz[°/s];Sollbeschleunigung[°/s*s];Istbeschleunigung[°/s*s];Beschleunigungsdifferenz[°/s*s]
0.0;0.0;2.0;-2.0;-0.0;-0.000192;0.0;0.0;0.0;0.0
0.004;0.0;2.0;-2.0;-0.0;-0.000192;0.0;0.0;0.0;0.0
0.008;0.0;2.0;-2.0;-0.0;-0.000192;0.0;0.0;0.0;0.0
0.012;0.0;2.0;-2.0;-0.0;-0.000192;0.0;0.0;0.0;0.0
0.016;0.0;2.0;-2.0;-0.0;-0.000192;0.0;0.0;0.0;0.0
0.02;0.0;2.0;-2.0;-0.0;-0.000192;0.0;0.0;0.0;0.0
0.024;0.0;2.0;-2.0;-0.0;-0.000192;0.0;0.0;0.0;0.0
0.028;0.0;2.0;-2.0;-0.0;-0.000192;0.0;0.0;0.0;0.0
0.032;0.0;2.0;-2.0;-0.0;-0.000192;0.0;0.0;0.0;0.0
0.036000000000000004;0.0;2.0;-2.0;-0.0;-0.000192;0.0;0.0;0.0;0.0
0.04000000000000001;0.0;2.0;-2.0;-0.0;-0.000192;0.0;0.0;0.0;0.0
0.04400000000000001;0.0;2.0;-2.0;-0.0;-0.000192;0.0;0.0;0.0;0.0
0.048000000000000015;0.0;2.0;-2.0;-0.0;-0.000192;0.0;0.0;0.0;0.0
0.05200000000000002;0.0;2.0;-2.0;-0.0;-0.000192;0.0;0.0;0.0;0.0
0.05600000000000002;0.0;2.0;-2.0;-0.0;-0.000192;0.0;0.0;0.0;0.0
0.060000000000000026;0.0;2.0;-2.0;-0.0;-0.000192;0.0;0.0;0.0;0.0
0.06400000000000003;0.0;2.0;-2.0;-0.0;-0.000192;0.0;0.0;0.0;0.0
0.06800000000000003;0.0;2.0;-2.0;-4.3545562972424124e-24;-0.000192;0.0;-1.088639074310603e-21;0.0;-1.088639074310603e-21
0.07200000000000004;0.0;2.0;-2.0;-3.4686970982608526e-23;-0.000192;0.0;-7.583103671341529e-21;0.0;-7.583103671341529e-21
0.07600000000000004;0.0;2.0;-2.0;-1.352174960203932e-22;-0.000192;0.0;-2.5132631259446168e-20;0.0;-2.5132631259446168e-20
0.08000000000000004;0.0;2.0;-2.0;-3.434493339008069e-22;-0.000192;0.0;-5.205795947010343e-20;0.0;-5.205795947010343e-20
0.08400000000000005;0.0;2.0;-2.0;-6.3600527314003625e-22;-0.000192;0.0;-7.313898480980734e-20;0.0;-7.313898480980734e-20
0.08800000000000005;48642.0;2.0;-2.0;12.160514993326474;-0.000192;0.0;3040.1287483316187;0.0;3040.1287483316187
0.09200000000000005;71353.0;2.0;48640.0;5.677824563111388;-0.000192;16.830146993326473;-1620.6726075537717;0.0;-1620.6726075537717
0.09600000000000006;94983.0;67321.0;4032.0;5.907557664993955;16.829954993326474;-10.765058430215086;57.433275470641696;0.0;57.433275470641696
0.10000000000000006;118881.0;91580.0;3403.0;5.9745385555245765;6.064896563111388;0.1693491018825668;16.745222632655434;0.0;16.745222632655434
0.10400000000000006;142614.0;116516.0;2365.0;5.933158474670966;6.234245664993955;-0.03266710946937845;-10.345020213402556;0.0;-10.345020213402556
0.10800000000000007;164815.0;141322.0;1292.0;5.550224521317328;6.201578555524576;-0.1443880808536102;-95.73348833840956;83.33333333333333;-179.06682167174287
0.11200000000000007;183705.0;165550.0;-735.0;4.722574889965224;6.057190474670966;-0.5775259533536383;-206.912407838026;83.33333333333333;-290.2457411713593
0.11600000000000008;197985.0;187468.0;-3763.0;3.5698683193132963;5.479664521317328;-1.1183376313521034;-288.1766426629819;83.33333333333333;-371.50997599631523
0.12000000000000008;206598.0;204913.0;-6928.0;2.1533692364520802;4.361326889965224;-1.4565465706519278;-354.124770715304;0.0;-354.124770715304
0.12400000000000008;208862.0;216532.0;-9934.0;0.5658728182242829;2.9047803193132964;-1.7050750828612162;-396.8741045569493;0.0;-396.8741045569493
0.12800000000000009;204946.0;221330.0;-12468.0;-0.9788527823047499;1.1997052364520802;-1.8307604182277972;-386.1814001322582;0.0;-386.1814001322582
0.1320000000000001;195467.0;218806.0;-13860.0;-2.369787309491767;-0.6310551817757171;-1.6783576005290328;-347.73363179675425;0.0;-347.73363179675425
0.1360000000000001;181150.0;209569.0;-14102.0;-3.579251938947639;-2.30941278230475;-1.4141665271870174;-302.366157363968;0.0;-302.366157363968
0.1400000000000001;163026.0;194675.0;-13525.0;-4.530944966564067;-3.7235793094917673;-1.1540726294558716;-237.92325690410698;0.0;-237.92325690410698
0.1440000000000001;142354.0;175165.0;-12139.0;-5.1679386666268545;-4.877651938947639;-0.8186370276164281;-159.2484250156969;0.0;-159.2484250156969
0.1480000000000001;120294.0;152380.0;-10026.0;-5.515041240534835;-5.696288966564067;-0.4341457000627873;-86.77564347699507;0.0;-86.77564347699507
0.1520000000000001;97676.0;127859.0;-7565.0;-5.6545481791623455;-6.130434666626854;-0.11084657390798025;-34.87673465687769;-83.33333333333333;48.45659867645564
0.1560000000000001;74940.0;102894.0;-5218.0;-5.684101128566165;-6.241281240534835;0.085805061372489;-7.3882373509548405;-83.33333333333333;75.94509598237849
0.16000000000000011;52271.0;78273.0;-3333.0;-5.667230315195179;-6.155476179162346;0.15140705059618043;4.217703342746404;-83.33333333333333;87.55103667607973
0.16400000000000012;0.0;54257.0;-1986.0;-13.067807509505972;-6.004069128566165;0.14618281337098615;-1850.1442985776982;0.0;-1850.1442985776982
0.16800000000000012;0.0;30826.0;-30826.0;1.134909825998887e-25;-5.857886315195179;-10.169217194310791;3266.951877376493;0.0;3266.951877376493
0.17200000000000013;0.0;-33282.0;33282.0;1.304863500181466e-26;-16.02710350950597;19.22217550950597;-2.5110586899518512e-23;0.0;-2.5110586899518512e-23
0.17600000000000013;0.0;-20502.0;20502.0;-3.1718013209563074e-26;3.195072;-1.2268800000000002;-1.1191662052844434e-23;0.0;-1.1191662052844434e-23
0.18000000000000013;0.0;-12630.0;12630.0;-3.7017492369612474e-26;1.968192;-0.7557119999999999;-1.3248697900123502e-24;0.0;-1.3248697900123502e-24
0.18400000000000014;-47845.0;-7781.0;7781.0;-11.961256992912068;1.21248;-0.46550400000000003;-2990.314248228017;0.0;-2990.314248228017
0.18800000000000014;-57055.0;-4794.0;-43051.0;-2.3027067788365567;0.746976;-16.84112899291207;2414.6375535188777;0.0;2414.6375535188777
0.19200000000000014;-64928.0;-69170.0;12115.0;-1.968199769324901;-16.09415299291207;14.954486214075512;83.62675237791395;0.0;83.62675237791395
0.19600000000000015;-71363.0;-73728.0;8800.0;-1.6087383429533457;-1.1396667788365566;0.016267009511655717;89.8653565928888;0.0;89.8653565928888
0.20000000000000015;-76393.0;-78221.0;6858.0;-1.2573571411896924;-1.123399769324901;0.17302942637155527;87.84530044091332;0.0;87.84530044091332
0.20400000000000015;-80259.0;-82022.0;5629.0;-0.9664950580882824;-0.9503703429533457;0.2333972017636532;72.71552077535252;0.0;72.71552077535252
0.20800000000000016;-83292.0;-84889.0;4630.0;-0.7583821734421552;-0.7169731411896925;0.19495808310141005;52.0282211615318;0.0;52.0282211615318
0.21200000000000016;-85812.0;-86977.0;3685.0;-0.6300918408275175;-0.5220150580882824;0.11739288464612724;32.07258315365944;0.0;32.07258315365944
0.21600000000000016;-88064.0;-88595.0;2783.0;-0.5629356957130089;-0.4046221734421552;0.041698332614637734;16.78903627862713;0.0;16.78903627862713
0.22000000000000017;-90192.0;-90046.0;1982.0;-0.5320113365723997;-0.36292384082751744;-0.009739854885491506;7.731089785152301;0.0;7.731089785152301
0.22400000000000017;-92256.0;-91536.0;1344.0;-0.5159218714266534;-0.37266369571300895;-0.030323640859390766;4.022366286436596;-83.33333333333333;87.35569961976992
0.22800000000000017;-94261.0;-93147.0;891.0;-0.5013859703751286;-0.4029873365723997;-0.027398534854253642;3.6339752628812008;-83.33333333333333;86.96730859621452
0.23200000000000018;-96193.0;-94868.0;607.0;-0.4828377948649353;-0.43038587142665335;-0.012728098948475208;4.637043877548319;-83.33333333333333;87.97037721088165
0.23600000000000018;-98031.0;-96640.0;447.0;-0.4596311940717571;-0.44311397037512856;0.003188175510193292;5.8016501982945385;0.0;5.8016501982945385
0.24000000000000019;-99764.0;-98399.0;368.0;-0.4331721765188902;-0.43992579486493527;0.015622600793178176;6.614754388216737;-83.33333333333333;89.94808772155007
0.2440000000000002;-101384.0;-100096.0;332.0;-0.40506849976958487;-0.4243031940717571;0.023003017552866933;7.025919187326327;-83.33333333333333;90.35925252065965
0.2480000000000002;-102890.0;-101701.0;317.0;-0.3763713687802183;-0.40130017651889016;0.02666367674930531;7.174282747341637;-83.33333333333333;90.50761608067496
0.25200000000000017;-104280.0;-103199.0;309.0;-0.34752186148995606;-0.37463649976958485;0.027929130989366557;7.212376822565564;0.0;7.212376822565564
0.25600000000000017;-105554.0;-104585.0;305.0;-0.3185786561237715;-0.3467073687802183;0.02846550729026226;7.235801341546138;0.0;7.235801341546138
0.2600000000000002;-106712.0;-105857.0;303.0;-0.2894563701837691;-0.31824186148995603;0.02875120536618453;7.280571485000609;0.0;7.280571485000609
0.2640000000000002;-107752.0;-107014.0;302.0;-0.2600700746103558;-0.2894906561237715;0.02902628594000245;7.346573893353317;0.0;7.346573893353317
0.2680000000000002;-108674.0;-108055.0;303.0;-0.23038611706997025;-0.26046437018376906;0.029482295573413253;7.420989385096388;0.0;7.420989385096388
0.2720000000000002;-109475.0;-108978.0;304.0;-0.20041810660931236;-0.2309820746103558;0.029779957540385538;7.4920026151644725;0.0;7.4920026151644725
0.2760000000000002;-110156.0;-109782.0;307.0;-0.17020507837299714;-0.20120211706997027;0.0302560104606579;7.553257059078805;0.0;7.553257059078805
0.2800000000000002;-110715.0;-110465.0;309.0;-0.13979271378994168;-0.17094610660931236;0.030405028236315218;7.603091145763866;83.33333333333333;-75.73024218756946
0.2840000000000002;-111152.0;-111027.0;312.0;-0.1092238048471767;-0.14054107837299715;0.030700364583055473;7.642227235691246;83.33333333333333;-75.69110609764208
0.2880000000000002;-111467.0;-111466.0;314.0;-0.07853618575279518;-0.10984071378994167;0.03076090894276498;7.671904773595379;83.33333333333333;-75.66142855973796
0.2920000000000002;-111658.0;-111782.0;315.0;-0.04776423546429338;-0.0790798048471767;0.030783619094381515;7.6929875721254515;0.0;7.6929875721254515
0.2960000000000002;-111725.0;-111975.0;317.0;-0.01694097873082559;-0.04829618575279518;0.030963950288501803;7.705814183366947;0.0;7.705814183366947
0.3000000000000002;-111670.0;-112044.0;319.0;0.01390055101736518;-0.017332235464293376;0.031015256733467788;7.710382437047692;83.33333333333333;-75.62295089628563
0.3040000000000002;-111491.0;-111990.0;320.0;0.04472684074271269;0.013683021269174412;0.030937529748190768;7.706572431336877;83.33333333333333;-75.62676090199645
0.3080000000000002;-111189.0;-111812.0;321.0;0.07550397439144114;0.04462055101736518;0.030922289725347503;7.694283412182115;83.33333333333333;-75.63904992115121
0.3120000000000002;-110764.0;-111510.0;321.0;0.10619788510962297;0.07554284074271268;0.030777133648728458;7.6734776795454565;0.0;7.6734776795454565
0.3160000000000002;-110217.0;-111085.0;321.0;0.1367745686755006;0.10631997439144114;0.030693910718181838;7.644170891469411;0.0;7.644170891469411
0.32000000000000023;-109548.0;-110537.0;320.0;0.1672001986438411;0.13701388510962298;0.03048068356587763;7.6064074920851255;0.0;7.6064074920851255
0.32400000000000023;-108758.0;-109868.0;320.0;0.19744116775816506;0.1674945686755006;0.0304256299683405;7.560242278580986;0.0;7.560242278580986
0.32800000000000024;-107849.0;-109077.0;319.0;0.22746409975448675;0.1979201986438411;0.03014496911432396;7.505732999080424;0.0;7.505732999080424
0.33200000000000024;-106820.0;-108165.0;316.0;0.25723586225925715;0.22806516775816507;0.029734931996321684;7.4429406261926;0.0;7.4429406261926
0.33600000000000024;-105673.0;-107134.0;314.0;0.2867235918705113;0.25780009975448676;0.0295797625047704;7.37193240281353;0.0;7.37193240281353
0.34000000000000025;-104409.0;-105985.0;312.0;0.31589472971630944;0.28737986225925716;0.029295729611254095;7.292784461449542;0.0;7.292784461449542
0.34400000000000025;-103030.0;-104719.0;310.0;0.34471706153343856;0.31667559187051125;0.028979137845798197;7.2055829542822805;0.0;7.2055829542822805
0.34800000000000025;-101538.0;-103337.0;307.0;0.37315875745756427;0.34565472971630945;0.02853433181712911;7.110423981031428;0.0;7.110423981031428
0.35200000000000026;-99933.0;-101841.0;303.0;0.40118840944883605;0.37418906153343856;0.028057695924125714;7.007412997817944;0.0;7.007412997817944
0.35600000000000026;-98218.0;-100233.0;300.0;0.42877506631161644;0.4022467574575643;0.027741651991271765;6.896664215695098;0.0;6.896664215695098
0.36000000000000026;-96394.0;-98514.0;296.0;0.4558882672085808;0.42998840944883604;0.027202656862780394;6.778300224241085;0.0;6.778300224241085
0.36400000000000027;-94464.0;-96686.0;292.0;0.4824980744796068;0.45719106631161643;0.026729200896964345;6.652451817756505;0.0;6.652451817756505
0.36800000000000027;-92430.0;-94751.0;287.0;0.5085751061463955;0.4839202672085808;0.02612980727102604;6.519257916697163;0.0;6.519257916697163
0.3720000000000003;-90294.0;-92711.0;281.0;0.5340905681867083;0.5100500744796068;0.02550103166678863;6.378865510078214;0.0;6.378865510078214
0.3760000000000003;-88057.0;-90569.0;275.0;0.5590162864012751;0.5355511061463955;0.024939462040312832;6.231429553641698;0.0;6.231429553641698
0.3800000000000003;-85724.0;-88328.0;271.0;0.5833247376371904;0.5604905681867083;0.024541718214566854;6.077112808978824;0.0;6.077112808978824
0.3840000000000003;-83296.0;-85988.0;264.0;0.606989080320027;0.5850322864012751;0.02363645123591529;5.916085670709142;0.0;5.916085670709142
0.3880000000000003;-80776.0;-83554.0;258.0;0.6299831841432851;0.6086687376371904;0.02308834268283655;5.748525955814543;0.0;5.748525955814543
0.3920000000000003;-78167.0;-81027.0;251.0;0.652281658935783;0.631757080320027;0.022322103823258166;5.574618698124478;0.0;5.574618698124478
0.3960000000000003;-75472.0;-78411.0;244.0;0.673859882662505;0.6540791841432851;0.021626474792497907;5.394555931680478;0.0;5.394555931680478
0.4000000000000003;-72693.0;-75709.0;237.0;0.6946940286202692;0.675705658935783;0.020906223726721906;5.208536489441057;0.0;5.208536489441057
0.4040000000000003;-69794.0;-72923.0;230.0;0.7246185980669894;0.696611882662505;0.02016214595776422;7.481142361680043;0.0;7.481142361680043
0.4080000000000003;-66641.0;-70056.0;262.0;0.7883863222238736;0.7167740286202692;0.032996569446720136;15.941931039221064;0.0;15.941931039221064
0.4120000000000003;-63051.0;-67057.0;416.0;0.8973764112236057;0.7497705980669893;0.07855172415688427;27.247522249933017;0.0;27.247522249933017
0.4160000000000003;-58813.0;-63744.0;693.0;1.0595463440706854;0.8283223222238736;0.13558208899973212;40.54248321176993;0.0;40.54248321176993
0.4200000000000003;-53552.0;-59889.0;1076.0;1.3153978281172867;0.9639044112236057;0.19893793284707972;63.96287101165032;0.0;63.96287101165032
0.4240000000000003;-46846.0;-55238.0;1686.0;1.6763008974704174;1.1628423440706854;0.31441148404660124;90.2257673382827;0.0;90.2257673382827
0.4280000000000003;0.0;-49329.0;2483.0;11.71172814810711;1.4772538281172867;0.4374150693531307;2508.856812659173;0.0;2508.856812659173
0.43200000000000033;0.0;-41671.0;41671.0;8.869714710259062e-39;1.9146688974704174;13.797475250636694;-2927.9320370267774;0.0;-2927.9320370267774
0.43600000000000033;0.0;21177.0;-21177.0;6.408647479441088e-39;15.712144148107111;-17.74513614810711;-6.1526680770449345e-37;83.33333333333333;-83.33333333333333
0.44000000000000034;0.0;13046.0;-13046.0;2.9249798411545332e-39;-2.032992;0.7805760000000002;-8.709169095716389e-37;0.0;-8.709169095716389e-37
0.44400000000000034;0.0;8037.0;-8037.0;3.949504007851274e-40;-1.252416;0.48086399999999996;-6.325073600923514e-37;0.0;-6.325073600923514e-37
0.44800000000000034;0.0;4951.0;-4951.0;-7.669329701904328e-40;-0.771552;0.296256;-2.9047084274389004e-37;-83.33333333333333;83.33333333333333
0.45200000000000035;47083.0;3050.0;-3050.0;11.770988136881265;-0.475296;0.182496;2942.747034220316;0.0;2942.747034220316
0.45600000000000035;69022.0;1879.0;45204.0;5.4846763672930665;-0.2928;16.403372136881266;-1571.5779423970496;0.0;-1571.5779423970496
0.46000000000000035;91770.0;66321.0;2701.0;5.687032731011595;16.110572136881267;-10.3665997695882;50.58909092963204;83.33333333333333;-32.744242403701286
0.46400000000000036;114281.0;89296.0;2474.0;5.62778779403692;5.7439723672930665;0.18056436371852858;-14.811234243668592;83.33333333333333;-98.14456757700192
0.46800000000000036;135908.0;112994.0;1287.0;5.4065168504131735;5.924536731011595;-0.17319693697467464;-55.31773590593669;83.33333333333333;-138.65106923927002
0.47200000000000036;156385.0;135999.0;-91.0;5.119476367631495;5.75133979403692;-0.35355894362374674;-71.7601206954197;0.0;-71.7601206954197
0.47600000000000037;175452.0;157590.0;-1205.0;4.766647033205658;5.397780850413174;-0.3939844827816792;-88.20733360645927;83.33333333333333;-171.5406669397926
0.48000000000000037;192301.0;177605.0;-2153.0;4.212241173274233;5.0037963676314945;-0.4438373344258366;-138.60146498285619;83.33333333333333;-221.93479831618953
0.4840000000000004;205931.0;195844.0;-3543.0;3.4075018532745016;4.559959033205658;-0.687845859931425;-201.18482999993282;83.33333333333333;-284.51816333326616
0.4880000000000004;215529.0;211332.0;-5401.0;2.3994876031403147;3.872113173274233;-0.9831073199997311;-252.00356253354673;0.0;-252.00356253354673
0.4920000000000004;219973.0;222888.0;-7359.0;1.1109100834914916;2.8890058532745018;-1.195982250134187;-322.1443799122058;0.0;-322.1443799122058
0.4960000000000004;218193.0;229660.0;-9687.0;-0.4448404348723064;1.6930236031403147;-1.5120655196488233;-388.9376295909495;0.0;-388.9376295909495
0.5000000000000003;210074.0;230383.0;-12190.0;-2.0297600722398763;0.18095808349149156;-1.796038518363798;-396.2299093418925;0.0;-396.2299093418925
0.5040000000000003;196188.0;223923.0;-13849.0;-3.4716160047644675;-1.6150804348723065;-1.7441836373675699;-360.4639831311478;0.0;-360.4639831311478
0.5080000000000003;177375.0;210486.0;-14298.0;-4.7031774743703965;-3.3592640722398763;-1.4849599325245912;-307.89036740148225;0.0;-307.89036740148225
0.5120000000000003;154945.0;191110.0;-13735.0;-5.607522524142879;-4.844224004764468;-1.1775134696059286;-226.08626244312057;0.0;-226.08626244312057
0.5160000000000003;130488.0;167024.0;-12079.0;-6.1142488666382695;-6.021737474370396;-0.7453690497724823;-126.68158562384768;-83.33333333333333;-43.34825229051435
0.5200000000000004;104970.0;139956.0;-9468.0;-6.3794882228148735;-6.7671065241428785;-0.2560703424953914;-66.309839044151;-83.33333333333333;17.02349428918233
0.5240000000000004;78839.0;111864.0;-6894.0;-6.532705755306458;-7.02317686663827;-0.01813535617660378;-38.30438312289619;-83.33333333333333;45.02895021043714
0.5280000000000004;53553.0;83699.0;-4860.0;-6.321573434626632;-7.041312222814874;0.04204646750841512;52.78308016995648;0.0;52.78308016995648
0.5320000000000004;0.0;55702.0;-2149.0;-13.388333203877554;-6.999265755306459;0.47138832067982595;-1766.6899423127304;0.0;-1766.6899423127304
0.5360000000000004;0.0;29591.0;-29591.0;-5.45098642736131e-44;-6.527877434626633;-9.701191769250922;3347.0833009693883;-83.33333333333333;3430.416634302722
0.5400000000000004;0.0;-35325.0;35325.0;-1.4087762399723139e-44;-16.229069203877554;19.620269203877555;1.0105525468472491e-41;-83.33333333333333;83.33333333333333
0.5440000000000004;0.0;-21761.0;21761.0;7.51390958844267e-45;3.3912;-1.3021439999999997;5.400417997041452e-42;-83.33333333333333;83.33333333333333
0.5480000000000004;0.0;-13405.0;13405.0;1.318157061564473e-44;2.0890560000000002;-0.8021760000000002;1.416915256800515e-42;0.0;1.416915256800515e-42
0.5520000000000004;0.0;-8258.0;8258.0;1.0289367182885677e-44;1.28688;-0.494112;-7.230508581897631e-43;0.0;-7.230508581897631e-43
0.5560000000000004;0.0;-5087.0;5087.0;5.1179955796232396e-45;0.792768;-0.304416;-1.2928429008156094e-42;0.0;-1.2928429008156094e-42
0.5600000000000004;0.0;-3134.0;3134.0;1.059129218056518e-45;0.488352;-0.187488;-1.0147165903916804e-42;0.0;-1.0147165903916804e-42
0.5640000000000004;0.0;-1931.0;1931.0;-9.710818404678364e-46;0.300864;-0.11548800000000001;-5.075527646310886e-43;0.0;-5.075527646310886e-43
0.5680000000000004;0.0;-1190.0;1190.0;-1.4002701603950221e-45;0.185376;-0.071136;-1.0729707998179645e-43;0.0;-1.0729707998179645e-43
0.5720000000000004;0.0;-734.0;734.0;-3.0333747667674127e-40;0.11424000000000001;-0.04377600000000001;-7.583401910164522e-38;0.0;-7.583401910164522e-38
0.5760000000000004;0.0;-453.0;453.0;-2.416279426155908e-39;0.070464;-0.026976;-5.282354873697917e-37;0.0;-5.282354873697917e-37
