Zeit[sec];Sollposition[°];Istposition[°];Positionsschleppfehler[°];Sollgeschwindigkeit[°/s];Istgeschwindigkeit[°/s];Geschwindigkeitsdifferenz[°/s];Sollbeschleunigung[°/s*s];Istbeschleunigung[°/s*s];Beschleunigungsdifferenz[°/s*s]
0.0;0.0;-4.0;4.0;0.0;0.00023999999999999998;0.0;0.0;0.0;0.0
0.004;0.0;-4.0;4.0;0.0;0.00023999999999999998;0.0;0.0;0.0;0.0
0.008;0.0;-4.0;4.0;0.0;0.00023999999999999998;0.0;0.0;0.0;0.0
0.012;0.0;-4.0;4.0;0.0;0.00023999999999999998;0.0;0.0;0.0;0.0
0.016;0.0;-4.0;4.0;0.0;0.00023999999999999998;0.0;0.0;0.0;0.0
0.02;0.0;-4.0;4.0;0.0;0.00023999999999999998;0.0;0.0;0.0;0.0
0.024;0.0;-4.0;4.0;0.0;0.00023999999999999998;0.0;0.0;0.0;0.0
0.028;0.0;-4.0;4.0;0.0;0.00023999999999999998;0.0;0.0;0.0;0.0
0.032;0.0;-4.0;4.0;0.0;0.00023999999999999998;0.0;0.0;0.0;0.0
0.036000000000000004;0.0;-4.0;4.0;0.0;0.00023999999999999998;0.0;0.0;0.0;0.0
0.04000000000000001;0.0;-4.0;4.0;0.0;0.00023999999999999998;0.0;0.0;0.0;0.0
0.04400000000000001;0.0;-4.0;4.0;0.0;0.00023999999999999998;0.0;0.0;0.0;0.0
0.048000000000000015;0.0;-4.0;4.0;0.0;0.00023999999999999998;0.0;0.0;0.0;0.0
0.05200000000000002;0.0;-4.0;4.0;0.0;0.00023999999999999998;0.0;0.0;0.0;0.0
0.05600000000000002;0.0;-4.0;4.0;0.0;0.00023999999999999998;0.0;0.0;0.0;0.0
0.060000000000000026;0.0;-4.0;4.0;0.0;0.00023999999999999998;0.0;0.0;0.0;0.0
0.06400000000000003;0.0;-4.0;4.0;0.0;0.00023999999999999998;0.0;0.0;0.0;0.0
0.06800000000000003;0.0;-4.0;4.0;0.0;0.00023999999999999998;0.0;0.0;0.0;0.0
0.07200000000000004;0.0;-4.0;4.0;0.0;0.00023999999999999998;0.0;0.0;0.0;0.0
0.07600000000000004;0.0;-4.0;4.0;0.0;0.00023999999999999998;0.0;0.0;0.0;0.0
0.08000000000000004;0.0;-4.0;4.0;0.0;0.00023999999999999998;0.0;0.0;0.0;0.0
0.08400000000000005;-3733.0;-4.0;4.0;-0.9334491909594544;0.00023999999999999998;0.0;-233.3622977398636;0.0;-233.3622977398636
0.08800000000000005;-40943.0;-4.0;-3729.0;-9.302449283179197;0.00023999999999999998;-1.1574291909594545;-2092.2500230549354;0.0;-2092.2500230549354
0.09200000000000005;-223837.0;-4632.0;-36311.0;-45.72342456481202;-1.1571891909594545;-10.323920092219742;-9105.243820408206;0.0;-9105.243820408206
0.09600000000000006;-827868.0;-50556.0;-173281.0;-151.00773604620457;-11.481109283179197;-44.63917528163282;-26321.077870348137;0.0;-26321.077870348137
0.10000000000000006;-2357259.0;-275037.0;-552831.0;-382.34769533877585;-56.12028456481202;-128.05731148139256;-57834.98982314282;-166.66666666666666;-57668.32315647615
0.10400000000000006;-5547131.0;-1011747.0;-1345512.0;-797.4681036745769;-184.17759604620457;-278.9008192925712;-103780.10208395027;-583.3333333333334;-103196.76875061693
0.10800000000000007;-11288592.0;-2864060.0;-2683071.0;-1435.3651713608972;-463.0784153387758;-495.37394833580106;-159474.26692158007;-1833.3333333333333;-157640.93358824673
0.11200000000000007;-20530184.0;-6697869.0;-4590723.0;-2310.3977359782452;-958.4523636745769;-752.3561876863203;-218758.141154337;-4166.666666666667;-214591.47448767035
0.11600000000000008;-34220746.0;-13541103.0;-6989081.0;-3422.6403636472746;-1710.8085513608971;-1018.9340446173483;-278060.65691725735;-8166.666666666667;-269893.99025059066
0.12000000000000008;-53284878.0;-24460073.0;-9760673.0;-4766.032912565623;-2729.7425959782454;-1278.538147669029;-335848.137229587;-14083.333333333334;-321764.80389625364
0.12400000000000008;-78566695.0;-40493195.0;-12791683.0;-6320.453880077306;-4008.2807436472744;-1525.253148918348;-388605.24187792087;-22000.0;-366605.24187792087
0.12800000000000009;-110728475.0;-62627330.0;-15939365.0;-8040.44468393042;-5533.533892565622;-1743.2818875116836;-429997.7009632785;-32000.0;-397997.7009632785
0.1320000000000001;-150162900.0;-91734593.0;-18993882.0;-9858.605851849323;-7276.815780077306;-1903.261823853114;-454540.2919797257;-43750.0;-410790.2919797257
0.1360000000000001;-196946050.0;-128454903.0;-21707997.0;-11695.786741394195;-9180.07760393042;-1981.0080679189032;-459295.222386218;-57250.0;-402045.222386218
0.1400000000000001;-250814843.0;-173099245.0;-23846805.0;-13467.197615290535;-11161.085671849323;-1965.5093695448722;-442852.7184740851;-71916.66666666667;-370936.05180741847
0.1440000000000001;-311185108.0;-225605625.0;-25209218.0;-15092.565569034907;-13126.595041394196;-1853.1556538963396;-406341.98843609286;-87166.66666666667;-319175.32176942617
0.1480000000000001;-377229975.0;-285524627.0;-25660481.0;-16511.215936534165;-14979.750695290535;-1652.4437337443705;-354662.59187481453;-102250.0;-252412.59187481456
0.1520000000000001;-447989518.0;-352053404.0;-25176571.0;-17689.88508671501;-16632.194429034906;-1389.6157674992573;-294667.2875452114;-116500.0;-178167.28754521138
0.1560000000000001;-522470896.0;-424140644.0;-23848874.0;-18620.343400568694;-18021.810196534163;-1099.007330180848;-232614.5784634209;-129250.0;-103364.57846342091
0.16000000000000011;-599729859.0;-500623914.0;-21846982.0;-19314.739945775902;-19120.81752671501;-810.3447938536847;-173599.136301802;-140083.33333333334;-33515.80296846865
0.16400000000000012;-678934742.0;-580348563.0;-19381296.0;-19801.219856052325;-19931.162320568696;-546.4553852072058;-121619.97756910569;-148583.33333333334;26963.355764227657
0.16800000000000012;-759401165.0;-662259033.0;-16675709.0;-20116.604863661854;-20477.6177057759;-324.1446902764219;-78846.25190238238;-155000.0;76153.74809761762
0.17200000000000013;-840600772.0;-745466082.0;-13935083.0;-20299.900754957678;-20801.762396052323;-150.94744760953108;-45823.972823955955;-159333.33333333334;113509.36050937738
0.17600000000000013;-922160731.0;-829276921.0;-11323851.0;-20389.98861970853;-20952.709843661854;-26.621971295822732;-22521.96618771268;-162083.33333333334;139561.36714562066
0.18000000000000013;-1003851181.0;-913194248.0;-8966483.0;-20422.61168888676;-20979.331814957677;51.35421524915;-8155.767294557336;-163416.66666666666;155260.89937210933
0.18400000000000014;-1085554302.0;-996906158.0;-6945023.0;-20425.779139080776;-20927.977599708527;88.66453082177031;-791.8625485044686;-163750.0;162958.13745149554
0.18800000000000014;-1167225763.0;-1080263410.0;-5290892.0;-20417.864275749882;-20839.313068886757;96.08040980598162;1978.7158327235375;-163416.66666666666;165395.3824993902
0.19200000000000014;-1248861089.0;-1163236340.0;-3989423.0;-20408.83056471802;-20743.232659080775;86.00300333089399;2258.4277579653644;-162750.0;165008.42775796537
0.19600000000000015;-1330471563.0;-1245865258.0;-2995831.0;-20402.617548428734;-20657.22965574988;68.64923103186084;1553.2540723215789;-162083.33333333334;163636.58740565492
0.20000000000000015;-1412070183.0;-1328219579.0;-2251984.0;-20399.654135699147;-20588.58042471802;50.84383628928481;740.8531823966769;-161416.66666666666;162157.51984906333
0.20400000000000015;-1493665859.0;-1410370525.0;-1699658.0;-20398.91797234462;-20537.736588428736;36.10297272958633;184.04083863151754;-160916.66666666666;161100.70750529817
0.20800000000000016;-1575262720.0;-1492377059.0;-1288800.0;-20399.214155523518;-20501.63361569915;25.387643354526517;-74.04579472404293;-160500.0;160425.95420527595
0.21200000000000016;-1656861619.0;-1574282042.0;-980678.0;-20399.72391267754;-20476.245972344623;18.19113682110401;-127.43928850522934;-160250.0;160122.56071149476
0.21600000000000016;-1738461926.0;-1656114261.0;-747358.0;-20400.07563624681;-20458.05483552352;13.489442845981102;-87.93089231767226;-160000.0;159912.06910768233
0.22000000000000017;-1820062748.0;-1737892522.0;-569404.0;-20400.20474843731;-20444.565392677538;10.325516430730204;-32.278047625368345;-159833.33333333334;159801.055285708
0.22400000000000017;-1901663489.0;-1819629481.0;-433267.0;-20400.184079712235;-20434.239876246807;8.039107809498091;5.167181268916465;-159666.66666666666;159671.83384793557
0.22800000000000017;-1983263920.0;-1901334284.0;-329205.0;-20400.106992830835;-20426.20076843731;6.264388725074241;19.271720349934185;-159500.0;159519.27172034993
0.23200000000000018;-2064864066.0;-1983014029.0;-249891.0;-20400.03550265907;-20419.936379712235;4.835926881398336;17.87254294140439;-158916.66666666666;158934.53920960805
0.23600000000000018;-2146464044.0;-2064674430.0;-189636.0;-20399.993379729913;-20415.100452830837;3.6867901717669156;10.530732289225853;-157666.66666666666;157677.19739895588
0.24000000000000019;-2228063964.0;-2146320084.0;-143960.0;-20399.97914799018;-20411.41366265907;2.7826829291589092;3.55793493326928;-155250.0;155253.55793493328
0.2440000000000002;-2309663894.0;-2227954607.0;-109357.0;-20399.98152607802;-20408.63097972991;2.0904117397294613;-0.5945219600107521;-151333.33333333334;151332.73881137333
0.2480000000000002;-2391263856.0;-2309580769.0;-83125.0;-20399.989597881064;-20406.54056799018;1.5715419121625018;-2.017950761000975;-145416.66666666666;145414.64871590567
0.25200000000000017;-2472863848.0;-2391200645.0;-63211.0;-20399.996805389568;-20404.96902607802;1.186768196956109;-1.801877126126783;-137416.66666666666;137414.86478954053
0.25600000000000017;-2554463855.0;-2472815774.0;-48074.0;-20400.000871700642;-20403.782257881063;0.9010124914930202;-1.016577768496063;-127416.66666666667;127415.65008889817
0.2600000000000002;-2636063867.0;-2554427298.0;-36557.0;-20400.002111166883;-20402.88124538957;0.6869536889280425;-0.3098665602010442;-115583.33333333333;115583.02346677313
0.2640000000000002;-2717663878.0;-2636036075.0;-27792.0;-20400.001748242805;-20402.19429170064;0.524660533759743;0.09073101955436869;-102166.66666666667;102166.75739768622
0.2680000000000002;-2799263886.0;-2717642753.0;-21125.0;-20400.0008931608;-20401.669631166882;0.40038292407552944;0.21377050143200904;-87500.0;87500.21377050143
0.2720000000000002;-2880863890.0;-2799247829.0;-16057.0;-20400.000178314986;-20401.269248242806;0.30493508200743236;0.1787114533726708;-72250.0;72250.17871145337
0.2760000000000002;-2962463893.0;-2880851686.0;-12204.0;-20399.999799661164;-20400.9643131608;0.23189484581234865;0.0946634554566117;-57083.333333333336;57083.42799678879
0.2800000000000002;-3044063896.0;-2962454615.0;-9278.0;-20399.999703325586;-20400.732418314987;0.17593865382150398;0.024083894459181465;-42833.333333333336;42833.357417227795
0.2840000000000002;-3125663899.0;-3044056840.0;-7056.0;-20399.99975728093;-20400.556479661165;0.13341633557865862;-0.013488835975294933;-30166.666666666668;30166.653177830693
0.2880000000000002;-3207263902.0;-3125658532.0;-5367.0;-20399.99985010316;-20400.423063325587;0.10128604465717217;-0.023205557226901874;-19416.666666666668;19416.64346110944
0.2920000000000002;-3288863906.0;-3207259819.0;-4083.0;-20399.999922176026;-20400.32177728093;0.07694717777121696;-0.018018216906057205;-10750.0;10749.981981783094
0.2960000000000002;-3370463909.0;-3288860798.0;-3108.0;-20399.999957839464;-20400.244830103158;0.058427927131560864;-0.008915859325497877;-4333.333333333333;4333.3244174740075
0.3000000000000002;-3452063913.0;-3370461543.0;-2366.0;-20399.99996507201;-20400.186402176027;0.04448433656216366;-0.0018081364032696001;83.33333333333333;-83.3351414697366
0.3040000000000002;-3533663917.0;-3452062110.0;-1803.0;-20399.999958155444;-20400.141917839464;0.033772767455957364;0.0017291413314524107;2666.6666666666665;-2666.664937525335
0.3080000000000002;-3615263921.0;-3533662542.0;-1375.0;-20399.999948303725;-20400.10814507201;0.02568691656415467;0.002462929842295125;4000.0;-3999.9975370701577
0.3120000000000002;-3696863924.0;-3615262871.0;-1050.0;-20399.99994113071;-20400.082458155444;0.019509851721522864;0.001793253431969788;4333.333333333333;-4333.331540079901
0.3160000000000002;-3778463928.0;-3696863122.0;-802.0;-20399.999937826695;-20400.062948303723;0.014887173012539279;0.0008260039976448752;4000.0;-3999.9991739960024
0.32000000000000023;-3860063931.0;-3778463314.0;-614.0;-20399.999937352717;-20400.04806113071;0.011283304014796158;0.00011849442671518773;3416.6666666666665;-3416.66654817224
0.32400000000000023;-3941663935.0;-3860063461.0;-470.0;-20399.99993819166;-20400.036777826695;0.00864047397772083;-0.00020973584469174966;2666.6666666666665;-2666.666876402511
0.32800000000000024;-4023263939.0;-3941663573.0;-362.0;-20399.999939224766;-20400.028137352718;0.00647916105663171;-0.0002582764864200726;2083.3333333333335;-2083.33359160982
0.33200000000000024;-4104863942.0;-4023263659.0;-280.0;-20399.99993993248;-20400.02165819166;0.004918966893455945;-0.0001769285518093966;1500.0;-1500.0001769285518
0.33600000000000024;-4186463946.0;-4104863725.0;-217.0;-20399.999940233698;-20400.016739224768;0.0037792922885273583;-7.530434231739491e-05;1083.3333333333333;-1083.3334086376756
0.34000000000000025;-4268063950.0;-4186463776.0;-170.0;-20399.999940255275;-20400.01295993248;0.0028196987805131357;-5.394213076215237e-06;833.3333333333334;-833.3333387275464
0.34400000000000025;-4349663953.0;-4268063816.0;-134.0;-20399.999940156977;-20400.0101402337;0.0021599784231511876;2.457454684190452e-05;666.6666666666666;-666.6666420921198
0.34800000000000025;-4431263957.0;-4349663847.0;-106.0;-20399.999940049922;-20400.007980255275;0.0016800982994027436;2.676370058907196e-05;500.0;-499.9999732362994
0.35200000000000026;-4512863960.0;-4431263872.0;-85.0;-20399.999939980495;-20400.006300156976;0.0012601070557138883;1.7356796888634562e-05;333.3333333333333;-333.3333159765364
0.35600000000000026;-4594463964.0;-4512863892.0;-68.0;-20399.999939953726;-20400.00504004992;0.0010200694268860389;6.692062015645206e-06;250.0;-249.99999330793798
0.36000000000000026;-4676063968.0;-4594463908.0;-56.0;-20399.999939954054;-20400.004019980493;0.0007200267682492267;-8.185452315956354e-08;250.0;-250.00000008185452
0.36400000000000027;-4757663971.0;-4676063921.0;-47.0;-20399.99993996508;-20400.003299953725;0.0005399996698542964;-2.7566784410737455e-06;166.66666666666666;-166.6666694233451
0.36800000000000027;-4839263975.0;-4757663932.0;-39.0;-20399.999939975787;-20400.002759954055;0.000479988975712331;-2.676642907317728e-06;83.33333333333333;-83.33333600997624
0.3720000000000003;-4920863979.0;-4839263941.0;-34.0;-20399.9999399826;-20400.00227996508;0.0002999892931256909;-1.7034835764206946e-06;83.33333333333333;-83.3333350368169
0.3760000000000003;-5002463982.0;-4920863948.0;-31.0;-20399.999939985195;-20400.001979975787;0.00017999318515649065;-6.484697223640978e-07;83.33333333333333;-83.33333398180305
0.3800000000000003;-5084063986.0;-5002463955.0;-27.0;-20399.999939985195;-20400.0017999826;0.0002399974073341582;0.0;83.33333333333333;-83.33333333333333
0.3840000000000003;-5165663990.0;-5084063961.0;-25.0;-20399.9999399839;-20400.001559985194;0.00012000000060652383;3.2378011383116245e-07;0.0;3.2378011383116245e-07
0.3880000000000003;-5247263993.0;-5165663966.0;-24.0;-20399.9999399826;-20400.001439985193;6.0001293604727834e-05;3.246896085329354e-07;0.0;3.246896085329354e-07
0.3920000000000003;-5328863997.0;-5247263971.0;-22.0;-20399.999939981626;-20400.0013799839;0.00012000129936495796;2.4374458007514477e-07;0.0;2.4374458007514477e-07
0.3960000000000003;-5410464000.0;-5328863976.0;-21.0;-20399.999939981793;-20400.0012599826;6.000097346259281e-05;-4.18367562815547e-08;0.0;-4.18367562815547e-08
0.4000000000000003;-5492064004.0;-5410463980.0;-20.0;-20399.999939981793;-20400.001199981627;5.999983477522619e-05;0.0;0.0;0.0
0.4040000000000003;-5573664008.0;-5492063984.0;-20.0;-20399.999939981793;-20400.001139981792;0.0;0.0;0.0;0.0
0.4080000000000003;-5655264011.0;-5573663988.0;-20.0;-20399.999939982114;-20400.001139981792;0.0;-8.003553375601768e-08;0.0;-8.003553375601768e-08
0.4120000000000003;-5736864015.0;-5655263992.0;-19.0;-20399.999939982277;-20400.001139981792;5.9999678342137486e-05;-4.092726157978177e-08;0.0;-4.092726157978177e-08
0.4160000000000003;-5818464019.0;-5736863996.0;-19.0;-20399.999939981793;-20400.001079982114;-1.6370904631912708e-10;1.2096279533579946e-07;0.0;1.2096279533579946e-07
0.4200000000000003;-5900064022.0;-5818464000.0;-19.0;-20399.999939981626;-20400.001079982278;4.838511813431978e-10;4.18367562815547e-08;0.0;4.18367562815547e-08
0.4240000000000003;-5981664026.0;-5900064004.0;-18.0;-20399.999939982277;-20400.001079981794;6.000016946927644e-05;-1.6279955161735415e-07;0.0;-1.6279955161735415e-07
0.4280000000000003;-6063264030.0;-5981664008.0;-18.0;-20399.999939982277;-20400.001019981624;-6.511982064694166e-10;0.0;0.0;0.0
0.43200000000000033;-6144864033.0;-6063264012.0;-18.0;-20399.999939981954;-20400.001019982275;0.0;8.094502845779061e-08;0.0;8.094502845779061e-08
0.43600000000000033;-6226464037.0;-6144864016.0;-17.0;-20399.999939983252;-20400.001019982275;6.000032226438634e-05;-3.246896085329354e-07;0.0;-3.246896085329354e-07
0.44000000000000034;-6308064040.0;-6226464019.0;-18.0;-20399.999939981626;-20400.000959981953;-6.000129724270664e-05;4.065441316924989e-07;0.0;4.065441316924989e-07
0.44400000000000034;-6389664044.0;-6308064023.0;-17.0;-20399.999939981954;-20400.00101998325;6.000162466079928e-05;-8.185452315956354e-08;0.0;-8.185452315956354e-08
0.44800000000000034;-6471264048.0;-6389664026.0;-18.0;-20399.999939981954;-20400.000959981626;-6.000032590236515e-05;0.0;0.0;0.0
0.45200000000000035;-6552864051.0;-6471264030.0;-18.0;-20399.999939982277;-20400.00101998195;0.0;-8.094502845779061e-08;0.0;-8.094502845779061e-08
0.45600000000000035;-6634464055.0;-6552864034.0;-17.0;-20399.999939981626;-20400.00101998195;5.999967470415868e-05;1.6279955161735415e-07;0.0;1.6279955161735415e-07
0.46000000000000035;-6716064059.0;-6634464037.0;-18.0;-20399.999939982277;-20400.000959982277;-5.999934728606604e-05;-1.6279955161735415e-07;0.0;-1.6279955161735415e-07
0.46400000000000036;-6797664062.0;-6716064041.0;-18.0;-20399.999939982277;-20400.001019981624;-6.511982064694166e-10;0.0;0.0;0.0
0.46800000000000036;-6879264066.0;-6797664045.0;-17.0;-20399.999939981626;-20400.001019982275;5.999999848427251e-05;1.6279955161735415e-07;0.0;1.6279955161735415e-07
0.47200000000000036;-6960864070.0;-6879264048.0;-18.0;-20399.999939982277;-20400.000959982277;-5.999934728606604e-05;-1.6279955161735415e-07;0.0;-1.6279955161735415e-07
0.47600000000000037;-7042464073.0;-6960864052.0;-18.0;-20399.999939982277;-20400.001019981624;-6.511982064694166e-10;0.0;0.0;0.0
0.48000000000000037;-7124064077.0;-7042464056.0;-17.0;-20399.999939981626;-20400.001019982275;5.999999848427251e-05;1.6279955161735415e-07;0.0;1.6279955161735415e-07
0.4840000000000004;-7205664080.0;-7124064059.0;-18.0;-20399.999939982277;-20400.000959982277;-5.999934728606604e-05;-1.6279955161735415e-07;0.0;-1.6279955161735415e-07
0.4880000000000004;-7287264084.0;-7205664063.0;-17.0;-20399.999939982277;-20400.001019981624;5.999934728606604e-05;0.0;0.0;0.0
0.4920000000000004;-7368863960.0;-7287264066.0;-18.0;-20399.968011864188;-20400.000959982277;-5.999999848427251e-05;7.982029522281664;0.0;7.982029522281664
0.4960000000000004;-7450462882.0;-7368864070.0;110.0;-20399.729646981395;-20400.001019982275;0.039608118087926414;59.59122069816658;0.0;59.59122069816658
0.5000000000000003;-7532058348.0;-7450463915.0;1033.0;-20398.86538090315;-20399.961411864188;0.2937448827906337;216.06651956153655;83.33333333333333;132.73318622820324
0.5040000000000003;-7613641911.0;-7532062585.0;4237.0;-20395.88990711665;-20399.667666981397;1.056506078246457;743.8684466251289;83.33333333333333;660.5351132917955
0.5080000000000003;-7695183400.0;-7613657029.0;15118.0;-20385.371123437613;-20398.61116090315;3.6283337865024805;2629.6959197588876;83.33333333333333;2546.362586425554
0.5120000000000003;-7776604325.0;-7695236960.0;53560.0;-20355.23046486611;-20394.982827116648;12.825303679033823;7535.164642876225;0.0;7535.164642876225
0.5160000000000003;-7857752109.0;-7776765590.0;161265.0;-20286.94489181412;-20382.157523437614;36.60295857150413;17071.393262996935;0.0;17071.393262996935
0.5200000000000004;-7938372487.0;-7858147808.0;395699.0;-20155.093561291695;-20345.55456486611;82.35161305198926;32962.8326306065;166.66666666666666;32796.165963939835
0.5240000000000004;-8018076333.0;-7939200619.0;828132.0;-19925.96063244011;-20263.20295181412;157.79731052242641;57283.23221289611;500.0;56783.23221289611
