Zeit[sec];Sollposition[°];Istposition[°];Positionsschleppfehler[°];Sollgeschwindigkeit[°/s];Istgeschwindigkeit[°/s];Geschwindigkeitsdifferenz[°/s];Sollbeschleunigung[°/s*s];Istbeschleunigung[°/s*s];Beschleunigungsdifferenz[°/s*s]
0.0;-9979199999.0;-9979199995.0;-4.0;0.0;-0.00023999999999999998;0.0;0.0;0.0;0.0
0.004;-9979199999.0;-9979199995.0;-4.0;0.0;-0.00023999999999999998;0.0;0.0;0.0;0.0
0.008;-9979199999.0;-9979199995.0;-4.0;0.0;-0.00023999999999999998;0.0;0.0;0.0;0.0
0.012;-9979199999.0;-9979199995.0;-4.0;0.0;-0.00023999999999999998;0.0;0.0;0.0;0.0
0.016;-9979199999.0;-9979199995.0;-4.0;0.0;-0.00023999999999999998;0.0;0.0;0.0;0.0
0.02;-9979199999.0;-9979199995.0;-4.0;0.0;-0.00023999999999999998;0.0;0.0;0.0;0.0
0.024;-9979199999.0;-9979199995.0;-4.0;0.0;-0.00023999999999999998;0.0;0.0;0.0;0.0
0.028;-9979199999.0;-9979199995.0;-4.0;0.0;-0.00023999999999999998;0.0;0.0;0.0;0.0
0.032;-9979199999.0;-9979199995.0;-4.0;0.0;-0.00023999999999999998;0.0;0.0;0.0;0.0
0.036000000000000004;-9979199999.0;-9979199995.0;-4.0;0.0;-0.00023999999999999998;0.0;0.0;0.0;0.0
0.04000000000000001;-9979199999.0;-9979199995.0;-4.0;0.0;-0.00023999999999999998;0.0;0.0;0.0;0.0
0.04400000000000001;-9979199999.0;-9979199995.0;-4.0;0.0;-0.00023999999999999998;0.0;0.0;0.0;0.0
0.048000000000000015;-9979199999.0;-9979199995.0;-4.0;0.0;-0.00023999999999999998;0.0;0.0;0.0;0.0
0.05200000000000002;-9979199999.0;-9979199995.0;-4.0;0.0;-0.00023999999999999998;0.0;0.0;0.0;0.0
0.05600000000000002;-9979199999.0;-9979199995.0;-4.0;-6.463293916743105e-08;-0.00023999999999999998;0.0;-1.6158234791857763e-05;0.0;-1.6158234791857763e-05
0.060000000000000026;-9979199999.0;-9979199995.0;-4.0;-6.399815137203664e-07;-0.00023999999999999998;-6.463293916741811e-08;-0.00014383714363823386;0.0;-0.00014383714363823386
0.06400000000000003;-9979315260.0;-9979199995.0;-4.0;-28.815368965801593;-0.0002400646329391674;-5.753485745529571e-07;-7203.84208145502;0.0;-7203.84208145502
0.06800000000000003;-9979480377.0;-9979199995.0;-115265.0;-41.27934443749201;-0.00024063998151372035;-35.73102832582008;-3115.9938679226034;0.0;-3115.9938679226034
0.07200000000000004;-9979735218.0;-9979342920.0;-137457.0;-63.71021680243188;-35.73126896580159;-13.795495471690415;-5607.718091234969;-83.33333333333333;-5524.384757901635
0.07600000000000004;-9980051899.0;-9979541027.0;-194191.0;-79.17021161638735;-49.526764437492005;-25.834912364939868;-3864.9987034888672;-166.66666666666666;-3698.3320368222003
0.08000000000000004;-9980390663.0;-9979842473.0;-209426.0;-84.6908649801988;-75.36167680243187;-16.37409481395548;-1380.163340952862;-416.6666666666667;-963.4966742861952
0.08400000000000005;-9980734948.0;-9980209416.0;-181247.0;-86.07137856466854;-91.73577161638735;-3.8299133638114427;-345.1283961174347;-500.0;154.87160388256527
0.08800000000000005;-9981087173.0;-9980591678.0;-143270.0;-88.0562773289898;-95.5656849801988;0.8981064155302647;-496.2246910803145;-666.6666666666666;170.4419755863521
0.09200000000000005;-9981440851.0;-9980970348.0;-116825.0;-88.41943865893023;-94.66757856466853;-0.3981987643212648;-90.79033248510981;-666.6666666666666;575.8763341815568
0.09600000000000006;-9981770203.0;-9981350611.0;-90240.0;-82.33796491032359;-95.0657773289898;1.231938670059563;1520.3684371516601;-750.0;2270.36843715166
0.10000000000000006;-9982052972.0;-9981725946.0;-44257.0;-70.69226910496363;-93.83383865893023;8.840453748606635;2911.4239513399907;-750.0;3661.4239513399907
0.10400000000000006;-9982277966.0;-9982065919.0;12947.0;-56.248519407526885;-84.9933849103236;15.07793580535997;3610.937424359186;-750.0;4360.937424359186
0.10800000000000007;-9982431420.0;-9982345580.0;67614.0;-38.36342777372674;-69.91544910496363;17.723769697436744;4471.272908450036;-666.6666666666666;5137.939575116703
0.11200000000000007;-9982508115.0;-9982554346.0;122926.0;-19.173767910292458;-52.191679407526884;21.203811633800143;4797.414965858571;-583.3333333333334;5380.748299191904
0.11600000000000008;-9982517084.0;-9982678297.0;170182.0;-2.242289785970701;-30.98786777372674;22.02501986343428;4232.86953108044;-416.6666666666667;4649.536197747106
0.12000000000000008;-9982467968.0;-9982714148.0;197064.0;12.279070997951479;-8.962847910292458;18.544398124321756;3630.340195980545;-250.0;3880.340195980545
0.12400000000000008;-9982370364.0;-9982675822.0;207854.0;24.401026474268303;9.581550214029297;15.16876078392218;3030.488869079206;-83.33333333333333;3113.8222024125394
0.12800000000000009;-9982231044.0;-9982576821.0;206457.0;34.82984335905162;24.750310997951477;12.038135476316821;2607.20422119583;83.33333333333333;2523.8708878624966
0.1320000000000001;-9982045887.0;-9982429668.0;198624.0;46.28924212725483;36.7884464742683;9.958836884783324;2864.849692050802;166.66666666666666;2698.1830253841354
0.1360000000000001;-9981809563.0;-9982242679.0;196792.0;59.08095937014502;46.74728335905162;11.349478768203205;3197.9293107225467;333.3333333333333;2864.595977389213
0.1400000000000001;-9981528620.0;-9982010292.0;200729.0;70.2359539866962;58.09676212725483;13.027937242890182;2788.748654137796;416.6666666666667;2372.0819874711297
0.1440000000000001;-9981220263.0;-9981725794.0;197174.0;77.08904025637071;71.12469937014501;10.941694616551189;1713.2715674186265;500.0;1213.2715674186265
0.1480000000000001;-9980901212.0;-9981397529.0;177266.0;79.76286269219234;82.0663939866962;5.658606269674507;668.4556089554086;500.0;168.45560895540856
0.1520000000000001;-9980586791.0;-9981046629.0;145417.0;78.60519751150413;87.7250002563707;0.7628824358216377;-289.41629517205314;583.3333333333334;-872.7496285053865
0.1560000000000001;-9980296440.0;-9980692678.0;105887.0;72.58786037245223;88.48788269219234;-3.52946518068822;-1504.334284762976;666.6666666666666;-2171.0009514296426
0.16000000000000011;-9980042901.0;-9980352845.0;56405.0;63.384760136009874;84.95841751150412;-8.9862571390519;-2300.7750591105882;666.6666666666666;-2967.4417257772548
0.16400000000000012;-9979831023.0;-9980048957.0;6056.0;52.96933409399961;75.97216037245222;-12.224040236442349;-2603.856510502565;666.6666666666666;-3270.5231771692315
0.16800000000000012;-9979669097.0;-9979793965.0;-37058.0;40.48166166381747;63.748120136009874;-13.002266042010262;-3121.918107545536;583.3333333333334;-3705.2514408788693
0.17200000000000013;-9979560908.0;-9979590982.0;-78115.0;27.04708533016528;50.74585409399961;-14.951092430182143;-3358.644083413047;500.0;-3858.644083413047
0.17600000000000013;-9979497063.0;-9979447803.0;-113105.0;15.96120964763709;35.79476166381747;-15.533976333652188;-2771.4689206320477;416.6666666666667;-3188.135587298714
0.18000000000000013;-9979461436.0;-9979366760.0;-130303.0;8.906945203263039;20.26078533016528;-12.117755682528188;-1763.566111093513;250.0;-2013.566111093513
0.18400000000000014;-9979438873.0;-9979334188.0;-127248.0;5.640726897682124;8.143029647637093;-6.870964444374053;-816.5545763952287;166.66666666666666;-983.2212430618953
0.18800000000000014;-9979418958.0;-9979329100.0;-109773.0;4.9786736492908465;1.2720652032630397;-2.217718305580915;-165.51331209781938;0.0;-165.51331209781938
0.19200000000000014;-9979396585.0;-9979332882.0;-86076.0;5.59316033226824;-0.9456531023178751;0.7597667516087219;153.6216707443483;0.0;153.6216707443483
0.19600000000000015;-9979370561.0;-9979333625.0;-62960.0;6.5062006855769825;-0.18588635070915327;2.0014466829773934;228.26008832718568;0.0;228.26008832718568
0.20000000000000015;-9979341685.0;-9979326363.0;-44198.0;7.2188662879760646;1.81556033226824;2.0387603533087426;178.16640059977053;83.33333333333333;94.83306726643718
0.20400000000000015;-9979311265.0;-9979310946.0;-30739.0;7.604942442535399;3.8543206855769827;1.520205602399082;96.51903863983358;166.66666666666666;-70.14762802683308
0.20800000000000016;-9979280331.0;-9979289448.0;-21817.0;7.733497322471932;5.374526287976065;0.9213961545593348;32.1387199841332;416.6666666666667;-384.52794668253347
0.21200000000000016;-9979199999.0;-9979264265.0;-16066.0;20.082970151924705;6.2959224425353995;0.47361487993653206;3087.3682073631935;583.3333333333334;2504.03487402986
0.21600000000000016;-9979199999.0;-9979237187.0;37188.0;0.0;6.7695373224719315;15.544712829452772;-5020.742537981177;750.0;-5770.742537981177
0.22000000000000017;-9979199999.0;-9979147930.0;-52069.0;0.0;22.314250151924703;-25.438390151924704;0.0;833.3333333333334;-833.3333333333334
0.22400000000000017;-9979199999.0;-9979160426.0;-39573.0;0.0;-3.1241399999999997;0.7497599999999998;0.0;833.3333333333334;-833.3333333333334
0.22800000000000017;-9979126178.0;-9979169923.0;-30076.0;18.455352571435398;-2.37438;0.56982;4613.838142858849;750.0;3863.8381428588496
0.23200000000000018;-9979093502.0;-9979177141.0;50963.0;8.168973339029323;-1.80456;23.317692571435398;-2571.5948081015185;666.6666666666666;-3238.2614747681855
0.23600000000000018;-9979054096.0;-9979091089.0;-2413.0;9.851487047785042;21.5131325714354;-13.488939232406077;420.6284271889298;666.6666666666666;-246.03823947773685
0.24000000000000019;-9978994120.0;-9979058993.0;4897.0;14.994088426912962;8.024193339029322;2.12111370875572;1285.6503447819798;666.6666666666666;618.9836781153132
0.2440000000000002;-9978903160.0;-9979018412.0;24292.0;22.739914584097125;10.145307047785042;6.30630137912792;1936.456539296041;500.0;1436.456539296041
0.2480000000000002;-9978773390.0;-9978952606.0;49446.0;32.44245998386037;16.451608426912962;9.255066157184164;2425.6363499408103;333.3333333333333;2092.3030166074773
0.25200000000000017;-9978589618.0;-9978849780.0;76390.0;45.94304480114848;25.706674584097126;11.319185399763239;3375.1462043220286;166.66666666666666;3208.479537655362
0.25600000000000017;-9978344072.0;-9978701677.0;112059.0;61.38664469160344;37.025859983860364;15.640724817288117;3860.8999726137404;166.66666666666666;3694.233305947074
0.2600000000000002;-9978044045.0;-9978491011.0;146939.0;75.00670268181732;52.66658480114848;17.536399890454966;3405.014497553468;83.33333333333333;3321.6811642201346
0.2640000000000002;-9977700230.0;-9978210200.0;166155.0;85.95360163446799;70.20298469160345;14.773017990213873;2736.7247381626676;166.66666666666666;2570.058071496001
0.2680000000000002;-9977325197.0;-9977870296.0;170066.0;93.75834330679163;84.97600268181732;11.181558952650661;1951.185418080911;166.66666666666666;1784.5187514142442
0.2720000000000002;-9976938094.0;-9977485666.0;160469.0;96.77569955943497;96.15756163446798;7.228921672323651;754.3390631608347;250.0;504.33906316083466
0.2760000000000002;-9976561733.0;-9977072121.0;134027.0;94.0904053724575;103.38648330679163;1.4308362526433314;-671.3235467443681;166.66666666666666;-837.9902134110348
0.2800000000000002;-9976211978.0;-9976652852.0;91119.0;87.43852711770263;104.81731955943496;-5.259774186977467;-1662.9695636887157;166.66666666666666;-1829.6362303553824
0.2840000000000002;-9975900885.0;-9976254622.0;42644.0;77.77329299855585;99.5575453724575;-9.560378254754866;-2416.308529786697;83.33333333333333;-2499.6418631200304
0.2880000000000002;-9975645426.0;-9975894634.0;-6251.0;63.86475461241179;89.99716711770263;-12.59893411914679;-3477.1345965360147;83.33333333333333;-3560.467929869348
0.2920000000000002;-9975453978.0;-9975585042.0;-60384.0;47.86205388294679;77.39823299855584;-17.156518386144057;-4000.6751823662494;0.0;-4000.6751823662494
0.2960000000000002;-9975336506.0;-9975344076.0;-109902.0;29.367999167554242;60.24171461241178;-18.97378072946499;-4623.513678848137;0.0;-4623.513678848137
0.3000000000000002;-9975324938.0;-9975179005.0;-157501.0;2.8918965997283888;41.26793388294679;-21.349994715392548;-6619.025641956463;0.0;-6619.025641956463
0.3040000000000002;-9975439724.0;-9975099334.0;-225604.0;-28.696327974007872;19.917939167554245;-30.562282567825854;-7897.056143434065;-83.33333333333333;-7813.722810100732
0.3080000000000002;-9975670044.0;-9975141911.0;-297813.0;-57.580135555593905;-10.64434340027161;-35.920764573736264;-7220.951895396508;-83.33333333333333;-7137.618562063175
0.3120000000000002;-9975995550.0;-9975328171.0;-341873.0;-81.37653837004633;-46.56510797400787;-31.527407581586033;-5949.100703613107;-250.0;-5699.100703613107
0.3160000000000002;-9976392441.0;-9975640541.0;-355009.0;-99.22259029618651;-78.0925155555939;-24.584562814452426;-4461.512981535045;-416.6666666666667;-4044.8463148683777
0.32000000000000023;-9976829681.0;-9976051249.0;-341192.0;-109.31016076685769;-102.67707837004633;-17.017031926140177;-2521.8926176677955;-666.6666666666666;-1855.2259510011288
0.32400000000000023;-9977279806.0;-9976530025.0;-299656.0;-112.53106571660116;-119.69411029618651;-7.595410470671183;-805.2262374358677;-833.3333333333334;28.10709589746574
0.32800000000000024;-9977735391.0;-9977039183.0;-240623.0;-113.89627342557155;-127.28952076685769;0.3210750502565247;-341.301927242597;-916.6666666666666;575.3647394240696
0.33200000000000024;-9978187639.0;-9977547056.0;-188335.0;-113.06207017462343;-126.96844571660117;1.772072291029616;208.55081273703036;-1000.0;1208.5508127370304
0.33600000000000024;-9978594026.0;-9978047841.0;-139798.0;-101.5967787019008;-125.19637342557155;3.7464232509481263;2866.3228681806563;-1000.0;3866.3228681806563
0.34000000000000025;-9978904137.0;-9978533640.0;-60386.0;-77.52777556604913;-121.44995017462342;16.230011472722623;6017.250783962918;-1000.0;7017.250783962918
0.34400000000000025;-9979099495.0;-9978954519.0;50382.0;-48.83934641758461;-105.2199387019008;30.71508313585167;7172.1072871161305;-916.6666666666666;8088.773953782797
0.34800000000000025;-9979199999.0;-9979252538.0;153043.0;-25.126179414718194;-74.50485556604913;34.848089148464524;5928.291750716603;-750.0;6678.291750716603
0.35200000000000026;-9979199999.0;-9979411165.0;211166.0;0.0;-39.656766417584606;27.20054700286641;6281.544853679548;-500.0;6781.544853679548
0.35600000000000026;-9979199999.0;-9979460989.0;260990.0;0.0;-12.456219414718195;28.115619414718193;0.0;-333.3333333333333;333.3333333333333
0.36000000000000026;-9979199999.0;-9979398352.0;198353.0;0.0;15.659399999999998;-3.7582199999999997;0.0;-83.33333333333333;83.33333333333333
0.36400000000000027;-9979199999.0;-9979350748.0;150749.0;0.0;11.901179999999998;-2.8562399999999997;0.0;-83.33333333333333;83.33333333333333
0.36800000000000027;-9979199999.0;-9979314569.0;114570.0;0.0;9.044939999999999;-2.1707399999999994;0.0;83.33333333333333;-83.33333333333333
0.3720000000000003;-9979199999.0;-9979287073.0;87074.0;0.0;6.874199999999999;-1.6497599999999997;0.0;-83.33333333333333;83.33333333333333
0.3760000000000003;-9979199999.0;-9979266176.0;66177.0;0.0;5.2244399999999995;-1.2538199999999997;0.0;0.0;0.0
0.3800000000000003;-9979199999.0;-9979250294.0;50295.0;0.0;3.97062;-0.9529200000000002;0.0;-166.66666666666666;166.66666666666666
0.3840000000000003;-9979199999.0;-9979238224.0;38225.0;0.0;3.0176999999999996;-0.7241999999999997;0.0;-166.66666666666666;166.66666666666666
0.3880000000000003;-9979199999.0;-9979229050.0;29051.0;0.0;2.2935;-0.55044;0.0;-250.0;250.0
0.3920000000000003;-9979199999.0;-9979222078.0;22079.0;0.0;1.7430599999999998;-0.41832;0.0;-333.3333333333333;333.3333333333333
0.3960000000000003;-9979199999.0;-9979216780.0;16781.0;0.0;1.3247399999999998;-0.31787999999999994;0.0;-500.0;500.0
0.4000000000000003;-9979199999.0;-9979212753.0;12754.0;0.0;1.0068599999999999;-0.24161999999999995;0.0;-666.6666666666666;666.6666666666666
0.4040000000000003;-9979199999.0;-9979209693.0;9694.0;0.0;0.7652399999999999;-0.18359999999999999;0.0;-750.0;750.0
0.4080000000000003;-9979199999.0;-9979207367.0;7368.0;0.0;0.5816399999999999;-0.13955999999999996;0.0;-750.0;750.0
0.4120000000000003;-9979072170.0;-9979205599.0;5600.0;31.95739450919451;0.44208;-0.10608000000000001;7989.348627298627;-833.3333333333334;8822.68196063196
0.4160000000000003;-9978889122.0;-9979204256.0;132086.0;45.76196358880264;0.33599999999999997;39.546554509194515;3451.1422699020313;-750.0;4201.142269902031
0.4200000000000003;-9978606610.0;-9979044726.0;155604.0;70.62796224993882;39.88255450919451;15.21564907960812;6216.4996652840455;-666.6666666666666;6883.166331950712
0.4240000000000003;-9978255618.0;-9978824334.0;217724.0;87.74807655366034;55.09820358880263;28.593198661136185;4280.028575930381;-333.3333333333333;4613.361909263714
0.4280000000000003;-9977880373.0;-9978489569.0;233951.0;93.81116221145312;83.69140224993882;18.09373430372152;1515.7714144481956;0.0;1515.7714144481956
0.43200000000000033;-9977499445.0;-9978082429.0;202056.0;95.23211534426568;101.78513655366034;4.1493856577927914;355.2382832031391;333.3333333333333;21.90494986980579
0.43600000000000033;-9977110481.0;-9977658691.0;159246.0;97.24086328803783;105.93452221145313;-1.1476468671874471;502.1869859430375;666.6666666666666;-164.47968072362917
0.44000000000000034;-9976721113.0;-9977239544.0;129063.0;97.34204777762994;104.78687534426568;0.19776794377214912;25.296122398028587;916.6666666666666;-891.370544268638
0.44400000000000034;-9976360343.0;-9976819606.0;98493.0;90.19260639341405;104.98464328803783;-1.7330155104078813;-1787.3603460539725;1166.6666666666667;-2954.0270127206395
0.44800000000000034;-9976053237.0;-9976406600.0;46257.0;76.77645463413863;103.25162777762995;-10.283601384215899;-3354.0379398188556;1416.6666666666667;-4770.704606485522
0.45200000000000035;-9975813258.0;-9976034728.0;-18509.0;59.994732122279906;92.96802639341405;-17.30211175927542;-4195.430627964681;1416.6666666666667;-5612.097294631348
0.45600000000000035;-9975657666.0;-9975732065.0;-81193.0;38.897882272831744;75.66591463413863;-20.542762511858726;-5274.21246236204;1583.3333333333333;-6857.545795695374
0.46000000000000035;-9975593675.0;-9975511573.0;-146093.0;15.997894492822848;55.123152122279905;-24.99084984944816;-5724.996945002224;1416.6666666666667;-7141.663611668891
0.46400000000000036;-9975611862.0;-9975391044.0;-202631.0;-4.546929912011623;30.132302272831744;-26.292267780008896;-5136.206101208618;1416.6666666666667;-6552.872767875285
0.46800000000000036;-9975702314.0;-9975375684.0;-236178.0;-22.61290642896847;3.8400344928228485;-22.55764440483447;-4516.494129239211;1166.6666666666667;-5683.160795905878
0.47200000000000036;-9975854427.0;-9975450554.0;-251760.0;-38.02811945694365;-18.71760991201162;-19.000896516956846;-3853.803256993795;1000.0;-4853.803256993795
0.47600000000000037;-9976057742.0;-9975601428.0;-252999.0;-50.82891370248997;-37.71850642896847;-15.489553027975177;-3200.1985613865804;666.6666666666666;-3866.865228053247
0.48000000000000037;-9976310599.0;-9975814260.0;-243482.0;-63.21428497286503;-53.208059456943644;-12.229774245546324;-3096.342817593765;333.3333333333333;-3429.676150927098
0.4840000000000004;-9976613062.0;-9976076011.0;-234588.0;-75.61564297019977;-65.43783370248997;-11.851731270375069;-3100.3394993336856;-83.33333333333333;-3017.006166000352
0.4880000000000004;-9976954673.0;-9976385169.0;-227893.0;-85.40266867350007;-77.28956497286504;-11.999657997334737;-2446.7564258250754;-416.6666666666667;-2030.0897591584087
0.4920000000000004;-9977314773.0;-9976742325.0;-212348.0;-90.0250315745522;-89.28922297019977;-8.854325703300304;-1155.590725263032;-666.6666666666666;-488.92405859636534
0.4960000000000004;-9977674846.0;-9977134899.0;-179874.0;-90.01839741163063;-98.14354867350008;-2.673922901052123;1.6585407303928434;-750.0;751.6585407303928
0.5000000000000003;-9978018928.0;-9977538168.0;-136678.0;-86.02037215170975;-100.8174715745522;2.598394162921579;999.5063149802199;-833.3333333333334;1832.8396483135532
0.5040000000000003;-9978326191.0;-9977931044.0;-87884.0;-76.81570919611539;-98.21907741163062;6.925665259920876;2301.1657388985896;-833.3333333333334;3134.499072231923
0.5080000000000003;-9978583453.0;-9978296217.0;-29974.0;-64.31544088667147;-91.29341215170975;12.679262955594353;3125.0670773609813;-833.3333333333334;3958.400410694315
0.5120000000000003;-9978788838.0;-9978610673.0;27220.0;-51.34626111774595;-78.61414919611539;15.931908309443926;3242.2949422313804;-750.0;3992.2949422313804
0.5160000000000003;-9978939966.0;-9978861401.0;72563.0;-37.78202590805769;-62.682240886671465;15.68975976892552;3391.058802422064;-666.6666666666666;4057.7254690887307
