Zeit[sec];Sollposition[°];Istposition[°];Positionsschleppfehler[°];Sollgeschwindigkeit[°/s];Istgeschwindigkeit[°/s];Geschwindigkeitsdifferenz[°/s];Sollbeschleunigung[°/s*s];Istbeschleunigung[°/s*s];Beschleunigungsdifferenz[°/s*s]
0.0;0.0;5.0;-5.0;-0.0;-0.00021499999999999997;0.0;0.0;0.0;0.0
0.004;0.0;5.0;-5.0;-0.0;-0.00021499999999999997;0.0;0.0;0.0;0.0
0.008;0.0;5.0;-5.0;-0.0;-0.00021499999999999997;0.0;0.0;0.0;0.0
0.012;0.0;5.0;-5.0;-0.0;-0.00021499999999999997;0.0;0.0;0.0;0.0
0.016;0.0;5.0;-5.0;-0.0;-0.00021499999999999997;0.0;0.0;0.0;0.0
0.02;0.0;5.0;-5.0;-0.0;-0.00021499999999999997;0.0;0.0;0.0;0.0
0.024;0.0;5.0;-5.0;-0.0;-0.00021499999999999997;0.0;0.0;0.0;0.0
0.028;0.0;5.0;-5.0;-0.0;-0.00021499999999999997;0.0;0.0;0.0;0.0
0.032;0.0;5.0;-5.0;-0.0;-0.00021499999999999997;0.0;0.0;0.0;0.0
0.036000000000000004;0.0;5.0;-5.0;-0.0;-0.00021499999999999997;0.0;0.0;0.0;0.0
0.04000000000000001;0.0;5.0;-5.0;-0.0;-0.00021499999999999997;0.0;0.0;0.0;0.0
0.04400000000000001;0.0;5.0;-5.0;-0.0;-0.00021499999999999997;0.0;0.0;0.0;0.0
0.048000000000000015;0.0;5.0;-5.0;-0.0;-0.00021499999999999997;0.0;0.0;0.0;0.0
0.05200000000000002;0.0;5.0;-5.0;-0.0;-0.00021499999999999997;0.0;0.0;0.0;0.0
0.05600000000000002;0.0;5.0;-5.0;-0.0;-0.00021499999999999997;0.0;0.0;0.0;0.0
0.060000000000000026;0.0;5.0;-5.0;-0.0;-0.00021499999999999997;0.0;0.0;0.0;0.0
0.06400000000000003;0.0;5.0;-5.0;-0.0;-0.00021499999999999997;0.0;0.0;0.0;0.0
0.06800000000000003;0.0;5.0;-5.0;-0.0;-0.00021499999999999997;0.0;0.0;0.0;0.0
0.07200000000000004;0.0;5.0;-5.0;-0.0;-0.00021499999999999997;0.0;0.0;0.0;0.0
0.07600000000000004;0.0;5.0;-5.0;-0.0;-0.00021499999999999997;0.0;0.0;0.0;0.0
0.08000000000000004;0.0;5.0;-5.0;-0.0;-0.00021499999999999997;0.0;0.0;0.0;0.0
0.08400000000000005;275.0;5.0;-5.0;0.06899242199156075;-0.00021499999999999997;0.0;17.248105497890187;0.0;17.248105497890187
0.08800000000000005;3026.0;5.0;270.0;0.6875559084694396;-0.00021499999999999997;0.08081742199156075;154.64087161946972;0.0;154.64087161946972
0.09200000000000005;16544.0;327.0;2699.0;3.379476711777245;0.08060242199156074;0.7230104864778788;672.9802008269513;0.0;672.9802008269513
0.09600000000000006;61225.0;3541.0;13003.0;11.170322842691808;0.8036129084694396;3.1349928033078056;1947.7115327286408;0.0;1947.7115327286408
0.10000000000000006;174574.0;19295.0;41930.0;28.337252120147685;3.938605711777245;9.034707130914562;4291.7323193639695;0.0;4291.7323193639695
0.10400000000000006;411642.0;71188.0;103386.0;59.26696520312074;12.973312842691808;19.809537277455878;7732.428270743264;0.0;7732.428270743264
0.10800000000000007;839824.0;202319.0;209323.0;107.04557565940654;32.782850120147685;35.48500408297305;11944.652614071449;83.33333333333333;11861.319280738117
0.11200000000000007;1532140.0;475390.0;364434.0;173.07892909578533;68.26785420312073;54.4483834562858;16508.338359094698;250.0;16258.338359094698
0.11600000000000008;2563821.0;966254.0;565886.0;257.92039606528164;122.71623765940653;74.6957894363788;21210.366742374077;583.3333333333334;20627.033409040745
0.12000000000000008;4011452.0;1755902.0;807919.0;361.90773088420457;197.41202709578533;95.24888596949631;25996.833704730732;1000.0;24996.833704730732
0.12400000000000008;5950561.0;2926545.0;1084907.0;484.7770719561436;292.66091306528165;115.89781881892293;30717.335267984752;1583.3333333333333;29134.001934651416
0.12800000000000009;8450789.0;4560779.0;1389782.0;625.0569879626927;408.5587318842046;135.978966071939;35069.97900163728;2333.3333333333335;32736.645668303947
0.1320000000000001;11571432.0;6738929.0;1711860.0;780.1608434589755;544.5376979561436;154.12927000654906;38775.963874070694;3250.0;35525.963874070694
0.1360000000000001;15358731.0;9533596.0;2037836.0;946.8245357075332;698.6669679626926;169.1208234962828;41665.92306213942;4333.333333333333;37332.589728806095
0.1400000000000001;19844362.0;13004747.0;2353984.0;1121.4077002922734;867.7877914589754;180.25805624855764;43645.791146185045;5500.0;38145.791146185045
0.1440000000000001;25045890.0;17196930.0;2647432.0;1300.3820258777914;1048.045847707533;187.20142858474037;44743.58139637951;6833.333333333333;37910.24806304618
0.1480000000000001;30969904.0;22137919.0;2907971.0;1481.0034023240457;1235.2472762922735;190.1775025855179;45155.34411156358;8166.666666666667;36988.677444896915
0.1520000000000001;37616505.0;27839618.0;3130286.0;1661.6502015223618;1425.4247788777914;190.1809214462544;45161.69979957902;9666.666666666666;35495.03313291236
0.1560000000000001;44983247.0;34302040.0;3314465.0;1841.6852779728201;1615.6057003240458;188.56649619831614;45008.76911261457;11083.333333333334;33925.43577928124
0.16000000000000011;53067583.0;41518728.0;3464519.0;2021.083897881544;1804.172196522362;186.48739845045816;44849.65497718099;12666.666666666666;32182.988310514324
0.16400000000000012;61867866.0;49481366.0;3586217.0;2200.0707938389965;1990.65959497282;184.6316339087241;44746.72398936309;14083.333333333334;30663.390656029755
0.16800000000000012;71383229.0;58182530.0;3685336.0;2378.840522368184;2175.291228881544;183.24901295745212;44692.43213229686;15583.333333333334;29109.098798963525
0.17200000000000013;81612445.0;67616690.0;3766539.0;2557.304043432168;2358.5402418389963;182.26145752918774;44615.880265996;17000.0;27615.880265996
0.17600000000000013;92552198.0;77779896.0;3832549.0;2734.937946289129;2540.801699368184;181.30195106398378;44408.47571424024;18416.666666666668;25991.809047573573
0.18000000000000013;104195022.0;88668310.0;3883888.0;2910.706036874734;2722.103650432168;179.8414798569611;43942.02264640125;19833.333333333332;24108.689313067924
0.18400000000000014;116525673.0;100276090.0;3918932.0;3082.6625446144017;2901.945130289129;177.2749825856049;42989.12693491695;21250.0;21739.126934916952
0.18800000000000014;129515784.0;112592970.0;3932703.0;3247.5276487225465;3079.220112874734;172.54866073966787;41216.276027036205;22666.666666666668;18549.609360369534
0.19200000000000014;143120385.0;125600045.0;3915739.0;3401.1500012461966;3251.7687736144017;164.13565210814477;38405.58813091252;24083.333333333332;14322.254797579188
0.19600000000000015;157278926.0;139263662.0;3856723.0;3539.635202943262;3415.9044257225464;151.0846645236502;34621.30042426634;25333.333333333332;9287.967090933005
0.20000000000000015;171919451.0;153531618.0;3747308.0;3660.130963451864;3566.9890902461966;133.78035669706514;30123.94012715049;26666.666666666668;3457.2734604838224
0.20400000000000015;186963543.0;168334695.0;3584756.0;3761.022862098678;3700.7694469432618;113.50602450860197;25222.974661703574;27833.333333333332;-2610.3586716297577
0.20800000000000016;202331000.0;183591796.0;3371747.0;3841.8640597796298;3814.2754714518637;91.7325116468146;20210.2994202379;28916.666666666668;-8706.367246428767
0.21200000000000016;217943608.0;199215827.0;3115173.0;3903.1517102267785;3906.0079830986783;69.80851568095159;15321.912611787184;29750.0;-14428.087388212816
0.21600000000000016;233727993.0;215119092.0;2824516.0;3946.096119997043;3975.81649877963;48.78939944714875;10736.102442566107;30416.666666666668;-19680.564224100563
0.22000000000000017;249619311.0;231217515.0;2510478.0;3972.8291907951475;4024.6058982267787;29.44077577026428;6683.267699526141;31000.0;-24316.732300473857
0.22400000000000017;265566320.0;247433701.0;2185610.0;3986.7522899248456;4054.046673997043;12.763746798104421;3480.7747824245325;31416.666666666668;-27935.891884242134
0.22800000000000017;281534594.0;263700942.0;1865378.0;3992.06825194137;4066.8104207951474;0.15312312969808772;1328.9905041310703;31666.666666666668;-30337.676162535598
0.23200000000000018;297505304.0;279968796.0;1565798.0;3992.677149628946;4066.9635439248455;-7.565977983475477;152.22442189406138;31666.666666666668;-31514.442244772607
0.23600000000000018;313470976.0;296206386.0;1298918.0;3991.417833029077;4059.39756594137;-10.866942312423816;-314.82914996729505;31583.333333333332;-31898.162483300628
0.24000000000000019;329430714.0;312400508.0;1070468.0;3989.934415991329;4048.530623628946;-11.082666599869299;-370.8542594370101;31333.333333333332;-31704.187592770344
0.2440000000000002;345386350.0;328550299.0;880415.0;3988.9088516664574;4037.447957029077;-9.65569603774793;-256.3910812178847;31083.333333333332;-31339.724414551216
0.2480000000000002;361340065.0;344661468.0;724882.0;3988.428450441372;4027.792260991329;-7.713483324871504;-120.10030627129709;30500.0;-30620.1003062713
0.25200000000000017;377293363.0;360741783.0;598282.0;3988.324452526045;4020.0787776664574;-5.9242012250851985;-25.99947883174991;29916.666666666668;-29942.666145498417
0.25600000000000017;393246936.0;376798401.0;494962.0;3988.392960900297;4014.1545764413722;-4.546757915326907;17.12709356297637;29083.333333333332;-29066.206239770356
0.2600000000000002;409200909.0;392836832.0;410104.0;3988.4930163218446;4009.6078185260453;-3.580385625748022;25.01385538687373;28166.666666666668;-28141.652811279793
0.2640000000000002;425155153.0;408860941.0;339968.0;3988.5609611720142;4006.0274329002973;-2.9157925784525105;16.986212542406065;27000.0;-26983.013787457596
0.2680000000000002;441109501.0;424873387.0;281766.0;3988.5867401111045;4003.111640321845;-2.434741149830643;6.444734772571792;25750.0;-25743.555265227427
0.2720000000000002;457063839.0;440876094.0;233407.0;3988.584293666692;4000.676899172014;-2.0536580609095836;-0.6116111031815308;24416.666666666668;-24417.27827776985
0.2760000000000002;473018124.0;456870586.0;193253.0;3988.5709441305016;3998.6232411111046;-1.7290684444128601;-3.3373840475405814;23083.333333333332;-23086.67071738087
0.2800000000000002;488972357.0;472858162.0;159962.0;3988.558205473203;3996.8941726666917;-1.4448625361901577;-3.184664324635378;21583.333333333332;-21586.517997657967
0.2840000000000002;504926560.0;488839959.0;132398.0;3988.5505852736787;3995.4493101305015;-1.1979906572983055;-1.9050498810884164;20166.666666666668;-20168.571716547754
0.2880000000000002;520880753.0;504816964.0;109596.0;3988.5479468856947;3994.2513194732032;-0.9881061995242817;-0.6595969960017101;18583.333333333332;-18583.992930329332
0.2920000000000002;536834947.0;520790016.0;90737.0;3988.548315669747;3993.263213273679;-0.8135753879842014;0.09219601304266689;17166.666666666668;-17166.574470653624
0.2960000000000002;552789147.0;536759814.0;75133.0;3988.5497388920453;3992.4496378856948;-0.6706032159477218;0.355805574599799;15583.333333333334;-15582.977527758734
0.3000000000000002;568743351.0;552726930.0;62217.0;3988.5510287424772;3991.779034669747;-0.5539647777018217;0.32246260798274307;14166.666666666666;-14166.344204058683
0.3040000000000002;584697559.0;568691830.0;51521.0;3988.5517639452696;3991.225069892045;-0.45863814956783244;0.18380069809609267;12750.0;-12749.816199301904
0.3080000000000002;600651768.0;584654895.0;42664.0;3988.551992652011;3990.7664317424774;-0.3801157972079636;0.05717668534543918;11333.333333333334;-11333.27615664799
0.3120000000000002;616605976.0;600616440.0;35328.0;3988.551931265519;3990.3863159452694;-0.3152192932584512;-0.015346622944889532;9916.666666666666;-9916.68201328961
0.3160000000000002;632560184.0;616576724.0;29252.0;3988.551778865177;3990.071096652011;-0.26132938649152493;-0.03810008558957634;8500.0;-8500.038100085589
0.32000000000000023;648514392.0;632535963.0;24221.0;3988.5516500337876;3989.8097672655194;-0.21648540034266262;-0.03220784731183812;7166.666666666667;-7166.698874513979
0.32400000000000023;664468599.0;648494336.0;20056.0;3988.551581055244;3989.593281865177;-0.1792238313892085;-0.017244635955648846;5833.333333333333;-5833.350577969289
0.32800000000000024;680422806.0;664451992.0;16607.0;3988.5515629244287;3989.4140580337876;-0.14837597854375417;-0.0045327037696552;4500.0;-4500.00453270377
0.33200000000000024;696377013.0;680409054.0;13752.0;3988.5515721553425;3989.265682055244;-0.1227831308151508;0.0023077284367900575;3333.3333333333335;-3333.3310256048967
0.33600000000000024;712331220.0;696365625.0;11388.0;3988.55158868871;3989.1428989244287;-0.10164276908608372;0.004133341917622602;2333.3333333333335;-2333.329199991416
0.34000000000000025;728285427.0;712321790.0;9430.0;3988.5516016757424;3989.0412561553426;-0.08417746663235448;0.0032467580695083598;1416.6666666666667;-1416.6634199085972
0.34400000000000025;744239634.0;728277618.0;7809.0;3988.551608178151;3988.95707868871;-0.06969001296783972;0.001625602180865826;750.0;-749.9983743978191
0.34800000000000025;760193841.0;744233167.0;6467.0;3988.551609558199;3988.8873886757424;-0.05769949759132942;0.0003450119265835383;83.33333333333333;-83.33298832140675
0.35200000000000026;776148049.0;760188485.0;5356.0;3988.5516083588304;3988.829689178151;-0.0477716199520728;-0.00029984209959366126;-250.0;249.9997001579004
0.35600000000000026;792102256.0;776143612.0;4437.0;3988.5516066006335;3988.781917558199;-0.03951819936855827;-0.0004395492396724876;-500.0;499.9995604507603
0.36000000000000026;808056463.0;792098581.0;3675.0;3988.551605306557;3988.7423993588304;-0.03276775819676914;-0.0003235190888517536;-500.0;499.99967648091115
0.36400000000000027;824010670.0;808053419.0;3044.0;3988.551604702768;3988.7096316006337;-0.02713429407640433;-0.0001509472440375248;-583.3333333333334;583.3331823860893
0.36800000000000027;839964877.0;824008148.0;2522.0;3988.5516046096777;3988.6824973065573;-0.022446603788921493;-2.3272605176316574e-05;-583.3333333333334;583.3333100607282
0.3720000000000003;855919085.0;839962788.0;2089.0;3988.551604756373;3988.6600507027683;-0.01861909309081966;3.667378223326523e-05;-500.0;500.00003667378223
0.3760000000000003;871873292.0;855917353.0;1732.0;3988.5516049411563;3988.6414316096775;-0.01535085330488073;4.619585070031462e-05;-333.3333333333333;333.333379529184
0.3800000000000003;887827499.0;871871857.0;1435.0;3988.5516050690085;3988.6260807563726;-0.012770815216299525;3.196305442543235e-05;-250.0;250.00003196305443
0.3840000000000003;903781706.0;887826310.0;1189.0;3988.5516051241675;3988.6133099411563;-0.010577872147678136;1.3789758668281138e-05;-250.0;250.00001378975867
0.3880000000000003;919735913.0;903780720.0;986.0;3988.5516051288314;3988.6027320690087;-0.008728944841095654;1.165972207672894e-06;-250.0;250.0000011659722
0.3920000000000003;935690120.0;919735096.0;817.0;3988.5516051116683;3988.5940031241676;-0.007266995336067339;-4.290768629289232e-06;-166.66666666666666;166.66666237589803
0.3960000000000003;951644328.0;935689442.0;678.0;3988.551605092329;3988.5867361288315;-0.005977017163331766;-4.8348738346248865e-06;-166.66666666666666;166.66666183179282
0.4000000000000003;967598535.0;951643765.0;563.0;3988.551605079767;3988.580759111668;-0.004945019339174905;-3.140485205221921e-06;-83.33333333333333;83.33333019284812
0.4040000000000003;983552742.0;967598068.0;467.0;3988.5516050749784;3988.575814092329;-0.004128012561977812;-1.1971224012086168e-06;-83.33333333333333;83.33333213621093
0.4080000000000003;999506949.0;983552354.0;388.0;3988.5516050748856;3988.571686079767;-0.003397004788439517;-2.319211489520967e-08;-83.33333333333333;83.33333331014121
0.4120000000000003;1015461156.0;999506627.0;322.0;3988.5516050769374;3988.5682890749786;-0.0028380000931065297;5.129550117999315e-07;-83.33333333333333;83.33333384628834
0.4160000000000003;1031415363.0;1015460888.0;268.0;3988.5516050788037;3988.5654510748855;-0.0023219979480018083;4.665707820095122e-07;-83.33333333333333;83.33333379990411
0.4200000000000003;1047369571.0;1031415140.0;223.0;3988.551605080047;3988.5631290769375;-0.0019349981339473743;3.108198143308982e-07;0.0;3.108198143308982e-07
0.4240000000000003;1063323778.0;1047369384.0;187.0;3988.5516050805445;3988.5611940788035;-0.0015479987564503972;1.2437340046744794e-07;0.0;1.2437340046744794e-07
0.4280000000000003;1079277985.0;1063323622.0;156.0;3988.551605080451;3988.559646080047;-0.0013329995026651886;-2.3419488570652902e-08;0.0;-2.3419488570652902e-08
0.43200000000000033;1095232192.0;1079277855.0;130.0;3988.5516050802025;3988.5583130805444;-0.001118000093356386;-6.207301339600235e-08;-83.33333333333333;83.33333327126032
0.43600000000000033;1111186399.0;1095232083.0;109.0;3988.551605080109;3988.557195080451;-0.0009030002483996213;-2.3419488570652902e-08;-83.33333333333333;83.33333330991384
0.44000000000000034;1127140607.0;1111186308.0;91.0;3988.551605079798;3988.5562920802026;-0.0007740000937701552;-7.776179700158536e-08;-83.33333333333333;83.33333325557153
0.44400000000000034;1143094814.0;1127140530.0;77.0;3988.5516050798915;3988.555518080109;-0.0006020003111188998;2.3419488570652902e-08;0.0;2.3419488570652902e-08
0.44800000000000034;1159049021.0;1143094749.0;65.0;3988.551605079767;3988.5549160797977;-0.000515999906383513;-3.115019353572279e-08;0.0;-3.115019353572279e-08
0.45200000000000035;1175003228.0;1159048966.0;55.0;3988.5516050799533;3988.5544000798914;-0.0004300001246519969;4.661160346586257e-08;0.0;4.661160346586257e-08
0.45600000000000035;1190957435.0;1175003181.0;47.0;3988.5516050798915;3988.5539700797667;-0.00034399981359456433;-1.546140993013978e-08;0.0;-1.546140993013978e-08
0.46000000000000035;1206911642.0;1190957395.0;40.0;3988.5516050798915;3988.553626079953;-0.0003010000614267483;0.0;0.0;0.0
0.46400000000000036;1222865850.0;1206911608.0;34.0;3988.551605080015;3988.5533250798917;-0.00025800000003073364;3.092281986027956e-08;0.0;3.092281986027956e-08
0.46800000000000036;1238820057.0;1222865820.0;30.0;3988.5516050799533;3988.5530670798917;-0.00017199987632920966;-1.546140993013978e-08;0.0;-1.546140993013978e-08
0.47200000000000036;1254774264.0;1238820031.0;26.0;3988.5516050798915;3988.5528950800153;-0.00017200006186612882;-1.546140993013978e-08;0.0;-1.546140993013978e-08
0.47600000000000037;1270728471.0;1254774241.0;23.0;3988.5516050799533;3988.5527230799535;-0.00012900006186100654;1.546140993013978e-08;0.0;1.546140993013978e-08
0.48000000000000037;1286682678.0;1270728451.0;20.0;3988.551605079767;3988.5525940798916;-0.0001289999381697271;-4.661160346586257e-08;0.0;-4.661160346586257e-08
0.4840000000000004;1302636886.0;1286682660.0;18.0;3988.551605080078;3988.5524650799534;-8.600018645665841e-05;7.776179700158536e-08;0.0;7.776179700158536e-08
0.4880000000000004;1318591093.0;1302636869.0;17.0;3988.551605080015;3988.552379079767;-4.299968895793427e-05;-1.5688783605583012e-08;0.0;-1.5688783605583012e-08
0.4920000000000004;1334545300.0;1318591078.0;15.0;3988.551605079767;3988.552336080078;-8.600006276537897e-05;-6.207301339600235e-08;0.0;-6.207301339600235e-08
0.4960000000000004;1350499507.0;1334545287.0;13.0;3988.5516050799533;3988.5522500800153;-8.600024830229813e-05;4.661160346586257e-08;0.0;4.661160346586257e-08
0.5000000000000003;1366453714.0;1350499495.0;12.0;3988.5516050798287;3988.552164079767;-4.299981355870841e-05;-3.115019353572279e-08;0.0;-3.115019353572279e-08
0.5040000000000003;1382407921.0;1366453703.0;11.0;3988.551605080015;3988.5521210799534;-4.300012460589642e-05;4.661160346586257e-08;0.0;4.661160346586257e-08
0.5080000000000003;1398362129.0;1382407911.0;10.0;3988.5516050799533;3988.552078079829;-4.299981355870841e-05;-1.546140993013978e-08;0.0;-1.546140993013978e-08
0.5120000000000003;1414316336.0;1398362119.0;10.0;3988.551605080078;3988.5520350800152;-6.184563972055912e-11;3.115019353572279e-08;0.0;3.115019353572279e-08
0.5160000000000003;1430270543.0;1414316327.0;9.0;3988.551605079767;3988.5520350799534;-4.299987540434813e-05;-7.776179700158536e-08;0.0;-7.776179700158536e-08
0.5200000000000004;1446224750.0;1430270534.0;9.0;3988.5516050799533;3988.551992080078;-3.1104718800634146e-10;4.661160346586257e-08;0.0;4.661160346586257e-08
0.5240000000000004;1462178957.0;1446224741.0;9.0;3988.5516050798915;3988.551992079767;1.864464138634503e-10;-1.546140993013978e-08;0.0;-1.546140993013978e-08
0.5280000000000004;1478133164.0;1462178948.0;9.0;3988.5516050799533;3988.5519920799534;-6.184563972055912e-11;1.546140993013978e-08;0.0;1.546140993013978e-08
0.5320000000000004;1494087372.0;1478133155.0;9.0;3988.551605080015;3988.5519920798915;6.184563972055912e-11;1.546140993013978e-08;0.0;1.546140993013978e-08
