Zeit[sec];Sollposition[°];Istposition[°];Positionsschleppfehler[°];Sollgeschwindigkeit[°/s];Istgeschwindigkeit[°/s];Geschwindigkeitsdifferenz[°/s];Sollbeschleunigung[°/s*s];Istbeschleunigung[°/s*s];Beschleunigungsdifferenz[°/s*s]
0.0;0.0;-4.0;4.0;1.7800629414126166e-47;0.00023999999999999998;0.0;-4.428060797110832e-44;0.0;-4.428060797110832e-44
0.004;0.0;-4.0;4.0;-5.969138296494831e-47;0.00023999999999999998;0.0;-1.937300309476862e-44;0.0;-1.937300309476862e-44
0.008;0.0;-4.0;4.0;-6.723315850568942e-47;0.00023999999999999998;0.0;-1.8854438851852756e-45;0.0;-1.8854438851852756e-45
0.012;0.0;-4.0;4.0;-4.397101201407028e-47;0.00023999999999999998;0.0;5.815536622904785e-45;0.0;5.815536622904785e-45
0.016;0.0;-4.0;4.0;-1.7528896479566171e-47;0.00023999999999999998;0.0;6.610528883626027e-45;0.0;6.610528883626027e-45
0.02;0.0;-4.0;4.0;-1.5019702513217255e-49;0.00023999999999999998;0.0;4.3446748636085e-45;0.0;4.3446748636085e-45
0.024;0.0;-4.0;4.0;6.829788700700242e-48;0.00023999999999999998;0.0;1.7449964314581035e-45;0.0;1.7449964314581035e-45
0.028;0.0;-4.0;4.0;6.941626382282247e-48;0.00023999999999999998;0.0;2.795942039550138e-47;0.0;2.795942039550138e-47
0.032;0.0;-4.0;4.0;4.274499627884143e-48;0.00023999999999999998;0.0;-6.66781688599526e-46;0.0;-6.66781688599526e-46
0.036000000000000004;0.0;-4.0;4.0;1.5424746146777884e-48;0.00023999999999999998;0.0;-6.830062533015887e-46;0.0;-6.830062533015887e-46
0.04000000000000001;0.0;-4.0;4.0;-1.481661021244601e-49;0.00023999999999999998;0.0;-4.226601792005621e-46;0.0;-4.226601792005621e-46
0.04400000000000001;0.0;-4.0;4.0;-7.63535773461333e-49;0.00023999999999999998;0.0;-1.5384241783421824e-46;0.0;-1.5384241783421824e-46
0.048000000000000015;9335.0;-4.0;4.0;2.333979576037495;0.00023999999999999998;0.0;583.4948940093738;0.0;583.4948940093738
0.05200000000000002;102374.0;-4.0;9339.0;23.259676953330782;0.00023999999999999998;2.894079576037495;5231.424344323322;0.0;5231.424344323322
0.05600000000000002;559678.0;11573.0;90801.0;114.32602879120967;2.894319576037495;25.813417377293284;22766.58795946972;0.0;22766.58795946972
0.060000000000000026;2070433.0;126403.0;433275.0;377.6887333560504;28.70773695333078;111.61479183787888;65840.67614121019;0.0;65840.67614121019
0.06400000000000003;5898277.0;687693.0;1382740.0;956.9609607637435;140.32252879120966;320.33060456484077;144818.05685192326;416.6666666666667;144401.3901852566
0.06800000000000003;13890055.0;2530305.0;3367972.0;1997.9443198624676;460.65313335605043;698.3861474076932;260245.83977468102;1583.3333333333333;258662.5064413477
0.07200000000000004;28288482.0;7166462.0;6723593.0;3599.6064864824443;1159.0392807637436;1242.320619098724;400415.5416549942;4583.333333333333;395832.2083216608
0.07600000000000004;51474261.0;16771901.0;11516581.0;5796.444556177328;2401.3598998624675;1889.241446619977;549209.5174237209;10500.0;538709.5174237209
0.08000000000000004;85801635.0;33934306.0;17539955.0;8581.843153588783;4290.601346482445;2558.2405096948833;696349.6493528637;20500.0;675849.6493528637
0.08400000000000005;133519101.0;61329673.0;24471962.0;11929.365893237873;6848.841856177328;3201.3190174114543;836880.6849122725;35333.333333333336;801547.3515789391
0.08800000000000005;196622808.0;101530316.0;31988785.0;15775.925957201402;10050.160873588782;3798.5321196490913;961640.0159908822;55166.666666666664;906473.3493242154
0.09200000000000005;276605923.0;156925087.0;39697721.0;19995.777789052932;13848.692993237873;4309.096223963526;1054962.9579628827;80000.0;974962.9579628827
0.09600000000000006;374249315.0;229556243.0;47049680.0;24410.84693020654;18157.7892172014;4660.969371851534;1103767.2852884016;109500.0;994267.2852884015
0.10000000000000006;489524105.0;320831277.0;53418038.0;28818.69608651404;22818.758589052934;4797.170621153604;1101962.2890768752;142750.0;959212.2890768751
0.10400000000000006;621560952.0;431294993.0;58229112.0;33009.2102815059;27615.929210206537;4696.513596307501;1047628.5487479644;178666.66666666666;868961.8820812978
0.10800000000000007;768717780.0;560544764.0;61016188.0;36789.20528662241;32312.44280651404;4357.738754991857;944998.7512791286;215500.0;729498.7512791286
0.11200000000000007;928796561.0;707225490.0;61492290.0;40019.693310111616;36670.181561505895;3808.5611251165174;807622.0058723011;251583.33333333334;556038.6725389678
0.11600000000000008;1099338916.0;869140460.0;59656101.0;42635.58669199695;40478.74268662241;3120.3166834892036;653973.3454713332;285083.3333333333;368890.01213799993
0.12000000000000008;1277887769.0;1043536697.0;55802219.0;44637.211086504;43599.059370111616;2384.6604618853307;500406.0986267632;314416.6666666667;185989.43196009652
0.12400000000000008;1462185410.0;1227471576.0;50416193.0;46074.408018761984;45983.71983199695;1678.4628345070523;359299.2330644956;338666.6666666667;20632.566397828952
0.12800000000000009;1650317994.0;1418120306.0;44065104.0;47033.14368253875;47662.182666504;1056.1315922579815;239683.91594419154;357416.6666666667;-117732.75072247515
0.1320000000000001;1840782060.0;1612993563.0;37324431.0;47616.01425717573;48718.31425876198;554.2952837767662;145717.64365924537;370750.0;-225032.35634075463
0.1360000000000001;2032478986.0;1810084001.0;30698059.0;47924.229342165345;49272.60954253875;185.2882546369874;77053.77124740335;379333.3333333333;-302279.56208592997
0.1400000000000001;2224682906.0;2007915592.0;24563394.0;48006.0;49457.897797175734;-59.864815010390885;20442.664458663785;383916.6666666667;-363474.0022080029
0.1440000000000001;2416987125.0;2205507723.0;19175183.0;48006.0;49398.03298216534;-241.52200216534402;0.0;385750.0;-385750.0
0.1480000000000001;2609218470.0;2402133766.0;14853359.0;48006.0;49156.51098;-259.30943999999727;0.0;385416.6666666667;-385416.6666666667
0.1520000000000001;2801341955.0;2597722572.0;11495898.0;48006.0;48897.20154;-201.44766000000527;0.0;384000.0;-384000.0
0.1560000000000001;2993383831.0;2792505587.0;8836368.0;48006.0;48695.75388;-159.5717999999979;0.0;382166.6666666667;-382166.6666666667
0.16000000000000011;3185383230.0;2986650315.0;6733516.0;47999.84753490118;48536.18208;-126.17111999999906;-1538.1162747053168;380583.3333333333;-382121.44960803865
0.16400000000000012;3377369733.0;3180290358.0;5092872.0;47996.62353324835;48410.01096;-104.59110509882157;-806.0004132075846;379333.3333333333;-380139.3337465409
0.16800000000000012;3569358448.0;3373512037.0;3857696.0;47997.17627578489;48305.41985490118;-77.33456165283133;138.1856341358798;378250.0;-378111.81436586415
0.17200000000000013;3761353515.0;3566424378.0;2934070.0;47998.76457128677;48228.08529324835;-54.86481746345817;397.07387546877726;377416.6666666667;-377019.59279119794
0.17600000000000013;3953353550.0;3759117259.0;2236256.0;48000.006480535805;48173.22047578489;-40.280544498120435;310.4773122595361;376833.3333333333;-376522.85602107376
0.18000000000000013;4145355775.0;3951649018.0;1704532.0;48000.553977325624;48132.93993128677;-30.66153075096372;136.87419745474472;376416.6666666667;-376279.79246921197
0.18400000000000014;4337358089.0;4144058131.0;1297644.0;48000.57624458331;48102.278400535804;-23.86578321018169;5.566814421399613;376083.3333333333;-376077.7665189119
0.18800000000000014;4529359557.0;4336371781.0;986308.0;48000.36458167157;48078.41261732562;-18.65789274231065;-52.91572793430532;375666.6666666667;-375719.58239460096
0.19200000000000014;4721358979.0;4528610799.0;748758.0;47999.853341387185;48059.75472458331;-14.46466291174147;-127.81007109697384;375166.6666666667;-375294.4767377637
0.19600000000000015;4913349379.0;4720791959.0;567020.0;47997.597601618545;48045.29006167157;-11.415520284383092;-563.9349421599036;373833.3333333333;-374397.26827549323
0.20000000000000015;5105308987.0;4912927457.0;421922.0;47989.89989596339;48033.87454138719;-10.961619768640958;-1924.4264137887512;370833.3333333333;-372757.75974712207
0.20400000000000015;5297186163.0;5105019108.0;289879.0;47969.29160264819;48022.91292161855;-15.620285655153566;-5152.0733287998155;364750.0;-369902.0733287998
0.20800000000000016;5488861452.0;5297048278.0;137885.0;47918.82003983158;48007.29263596339;-29.7279333152037;-12617.89070415216;354750.0;-367367.8907041522
0.21200000000000016;5680087237.0;5488958536.0;-97084.0;47806.44391960602;47977.56470264819;-64.56970281661052;-28094.030056390693;339750.0;-367844.0300563907
0.21600000000000016;5870437206.0;5680610515.0;-523278.0;47587.49000806395;47912.99499983158;-137.94776022555743;-54738.47788551757;319583.3333333333;-374321.8112188509
0.22000000000000017;6059274742.0;5871710703.0;-1273497.0;47209.38174002691;47775.04723960602;-263.967051542073;-94527.06700925955;294000.0;-388527.06700925954
0.22400000000000017;6245728621.0;6061755023.0;-2480281.0;46613.46769265905;47511.08018806395;-450.51530803703645;-148978.5118419659;263416.6666666667;-412395.1785086326
0.22800000000000017;6428694058.0;6249997282.0;-4268661.0;45741.3570021417;47060.56488002691;-703.2168473678612;-218027.67262933595;227916.66666666666;-445944.3392960026
0.23200000000000018;6606875845.0;6435426674.0;-6732616.0;44545.444680651875;46357.34803265905;-1019.9479905173503;-298978.08037245704;188416.66666666666;-487394.7470391237
0.23600000000000018;6778853984.0;6616776274.0;-9900429.0;42994.53264961426;45337.4000421417;-1385.9811014898223;-387728.00775940414;145833.33333333334;-533561.3410927375
0.24000000000000019;6943150720.0;6792581949.0;-13727965.0;41074.18208538475;43951.41894065188;-1780.5641910376216;-480087.64105737646;101666.66666666667;-581754.3077240431
0.2440000000000002;7098301364.0;6961265367.0;-18114647.0;38787.65917197685;42170.85474961426;-2183.5514842295015;-571630.7283519764;57250.0;-628880.7283519764
0.2480000000000002;7242925368.0;7121214580.0;-22913216.0;36155.99927140453;39987.303265384755;-2574.437053407906;-657914.9751430795;13916.666666666666;-671831.6418097463
0.25200000000000017;7375782039.0;7270866044.0;-27940676.0;33214.166030442815;37412.86621197685;-2933.307500572322;-735458.3102404285;-27250.0;-708208.3102404285
0.25600000000000017;7495824551.0;7408784278.0;-33002239.0;30010.62654485492;34479.55871140453;-3245.527020961712;-800884.8713969737;-66000.0;-734884.8713969737
0.2600000000000002;7602264057.0;7533720404.0;-37895853.0;26609.875363799878;31234.031690442815;-3497.1563255878937;-850187.7952637606;-102166.66666666667;-748021.1285970939
0.2640000000000002;7694620744.0;7644667905.0;-42403848.0;23089.170651643886;27736.87536485492;-3671.230881055042;-880176.1780389979;-136000.0;-744176.1780389979
0.2680000000000002;7772774484.0;7740930482.0;-46309738.0;19538.434032555662;24065.64448379988;-3755.0581121559917;-887684.154772056;-167750.0;-719934.154772056
0.2720000000000002;7837034258.0;7822172827.0;-49398343.0;16064.942752763507;20310.586371643887;-3736.052919088226;-868372.8199480388;-197916.66666666666;-670456.1532813722
0.2760000000000002;7888168429.0;7888470960.0;-51436702.0;12783.542213081648;16574.53345255566;-3595.7928197921538;-820350.1349204648;-226666.66666666666;-593683.4682537982
0.2800000000000002;7927349571.0;7940385922.0;-52217493.0;9795.284847140176;12978.740632763507;-3328.2479996818583;-747064.341485368;-254166.66666666666;-492897.67481870134
0.2840000000000002;7956048478.0;7978987892.0;-51638321.0;7174.726538352813;9650.492633081649;-2953.507045941473;-655139.5771968407;-280083.3333333333;-375056.2438635074
0.2880000000000002;7975918931.0;8005775834.0;-49727356.0;4967.613048635419;6696.985587140176;-2505.9004087873627;-551778.3724293485;-304250.0;-247528.37242934856
0.2920000000000002;7988684987.0;8022540174.0;-46621243.0;3191.5138635364037;4191.085178352813;-2020.7467097173944;-444024.79627475375;-325750.0;-118274.79627475372
0.2960000000000002;7996048024.0;8031221527.0;-42536540.0;1840.7592109357117;2170.338468635419;-1531.017005099015;-337688.663150173;-344250.0;6561.336849827001
0.3000000000000002;7999622753.0;8033778812.0;-37730788.0;893.6820425333414;639.3214635364038;-1062.409532600692;-236769.2921005926;-359166.6666666667;122397.3745660741
0.3040000000000002;8000857248.0;8032086460.0;-32463707.0;308.6238369976773;-423.0880690642882;-631.05230840237;-146264.55138391603;-370666.6666666667;224402.11528275066
0.3080000000000002;8000910055.0;8027869899.0;-27012651.0;13.201731818319239;-1054.1403774666583;-257.99484553566435;-73855.52629483951;-378583.3333333333;304727.8070384938
0.3120000000000002;8000557534.0;8022621359.0;-21711304.0;-88.1303601876688;-1312.1352230023226;22.65871482064199;-25333.02300149701;-383333.3333333333;358000.3103318363
0.3160000000000002;8000207249.0;8017463453.0;-16905919.0;-87.57113388474151;-1289.4765081816806;186.99100799401185;139.80657573182143;-385333.3333333333;385473.13990906515
0.32000000000000023;7999998734.0;8013053511.0;-12846262.0;-52.12879222917761;-1102.4855001876688;244.13864630292733;8860.585413890974;-385250.0;394110.58541389095
0.32400000000000023;7999925718.0;8009620124.0;-9621390.0;-18.25407045456653;-858.3468538847414;228.9346616555639;8468.680443652771;-384000.0;392468.6804436528
0.32800000000000024;7999931893.0;8007102476.0;-7176758.0;1.5437736619111846;-629.4121922291775;180.55264177461106;4949.4610291194285;-382083.3333333333;387032.79436245275
0.33200000000000024;7999964623.0;8005307038.0;-5375145.0;8.182444228458895;-448.8595504545665;127.8946241164777;1659.6676416369276;-380333.3333333333;381993.00097497023
0.33600000000000024;7999993477.0;8004023179.0;-4058556.0;7.213630759515827;-320.9649263380888;85.63401056654772;-242.20336723576685;-378750.0;378507.7966327642
0.34000000000000025;8000008544.0;8003081856.0;-3088379.0;3.766807334893553;-235.33091577154107;57.24180653105694;-861.7058561555687;-377666.6666666667;376804.96081051114
0.34400000000000025;8000011707.0;8002369500.0;-2360956.0;0.7906628916347804;-178.08910924048413;40.198556575377694;-744.0361108146931;-376666.6666666667;375922.63055585197
0.34800000000000025;8000008624.0;8001817938.0;-1806231.0;-0.7706178243023979;-137.89055266510644;30.30735555674123;-390.32017898429456;-375583.3333333333;375193.013154349
0.35200000000000026;8000004141.0;8001387606.0;-1378982.0;-1.1207925726458619;-107.58319710836521;24.073659284062828;-87.54368708586598;-374000.0;373912.45631291415
0.35600000000000026;8000000849.0;8001053568.0;-1049427.0;-0.8229881741534331;-83.50953782430238;19.42312525165653;74.4510996231072;-371500.0;371574.4510996231
0.36000000000000026;7999999450.0;8000797223.0;-796374.0;-0.3499457209372844;-64.08641257264586;15.480984398492431;118.26061330403716;-367666.6666666667;367784.9272799707
0.36400000000000027;7999999633.0;8000602802.0;-603352.0;0.045838834566281225;-48.605428174153424;12.054362453216143;98.9461388758914;-361833.3333333333;361932.2794722092
0.36800000000000027;8000000757.0;8000456598.0;-456965.0;0.28098900057683307;-36.55106572093728;9.179004555503568;58.787541502637964;-353666.6666666667;353725.4542081693
0.3720000000000003;8000002169.0;8000347110.0;-346353.0;0.35308377995137685;-27.372061165433713;6.871870166010549;18.023694843635944;-342666.6666666667;342684.6903615103
0.3760000000000003;8000003339.0;8000265110.0;-262941.0;0.2924374132245443;-20.500190999423165;5.076814779374542;-15.161591681708137;-328666.6666666667;328651.505074985
0.3800000000000003;8000003940.0;8000203417.0;-200078.0;0.15028199517314353;-15.423376220048622;3.7111336332731675;-35.53885451285019;-311583.3333333333;311547.79447882046
0.3840000000000003;8000003893.0;8000156569.0;-152629.0;-0.011716263938043751;-11.712242586775455;2.7047845819485996;-40.49956477779682;-291416.6666666667;291376.1671018889
0.3880000000000003;8000003328.0;8000120540.0;-116647.0;-0.14127293172251157;-9.007458004826855;1.996921740888812;-32.38916694611695;-268666.6666666667;268634.27749972057
0.3920000000000003;8000002486.0;8000092498.0;-89170.0;-0.21063984921852533;-7.010536263938043;1.5190633322155325;-17.34172937400344;-243416.66666666666;243399.32493729267
0.3960000000000003;8000001612.0;8000070533.0;-68047.0;-0.21834269403684597;-5.491472931722511;1.1980130825039854;-1.9257112045801619;-216333.33333333334;216331.40762212875
0.4000000000000003;8000000886.0;8000053360.0;-51748.0;-0.1814773325160016;-4.293459849218525;0.9702371551816795;9.216340380211095;-187833.33333333334;187842.54967371354
0.4040000000000003;8000000387.0;8000040068.0;-39182.0;-0.1247976559472873;-3.3232226940368457;0.7908253615208443;14.169919142178575;-158750.0;158764.16991914218
0.4080000000000003;8000000106.0;8000029939.0;-29552.0;-0.07016386446469637;-2.5323973325160014;0.6344796765687144;13.658447870647732;-129916.66666666667;129930.32511453732
0.4120000000000003;7999999986.0;8000022348.0;-22242.0;-0.02998489029634416;-1.897917655947287;0.4932337914825906;10.044743542088053;-102083.33333333333;102093.37807687542
0.4160000000000003;7999999959.0;8000016730.0;-16744.0;-0.006836610105304258;-1.4046838644646964;0.3700589741683522;5.7870700477599755;-76250.0;76255.78707004777
0.4200000000000003;7999999971.0;8000012592.0;-12633.0;0.002856071303872007;-1.0346248902963442;0.26980828019104;2.423170352294066;-53333.333333333336;53335.75650368563
0.4240000000000003;7999999989.0;8000009533.0;-9562.0;0.004602392935439902;-0.7648166101053042;0.19395268140917632;0.4365804078919738;-33916.666666666664;33917.103247074556
0.4280000000000003;8000000001.0;8000007250.0;-7261.0;0.003076104610728377;-0.5708639286961279;0.13980632163156786;-0.38157208117788133;-18250.0;18249.618427918824
0.43200000000000033;8000000006.0;8000005526.0;-5525.0;0.0011023829991229919;-0.43105760706456003;0.10263371167528845;-0.4934304029013462;-6250.0;6249.506569597099
0.43600000000000033;8000000005.0;8000004213.0;-4207.0;-0.00016889558778358733;-0.3284238953892716;0.07710627838839462;-0.3178196467266448;2166.6666666666665;-2166.984486313393
0.44000000000000034;8000000003.0;8000003208.0;-3203.0;-0.0006217202962730112;-0.25131761700087696;0.058968721413093395;-0.11320617712235596;7250.0;-7250.113206177122
0.44400000000000034;8000000000.0;8000002439.0;-2436.0;-0.0005579417812746257;-0.19234889558778356;0.04556717529151058;0.01594462874959638;9500.0;-9499.984055371251
0.44800000000000034;7999999999.0;8000001852.0;-1852.0;-0.0003103585110759717;-0.14678172029627298;0.035103778514998366;0.061895817549663494;9666.666666666666;-9666.604770849117
0.45200000000000035;7999999999.0;8000001406.0;-1407.0;-8.677163425388167e-05;-0.11167794178127462;0.026947583270198652;0.055896719205522506;8416.666666666666;-8416.61076994746
0.45600000000000035;7999999999.0;8000001068.0;-1069.0;3.873406529296591e-05;-0.08473035851107596;0.02050358687682209;0.0313764248867119;6750.0;-6749.968623575113
0.46000000000000035;7999999999.0;8000000812.0;-813.0;7.513538467115871e-05;-0.06422677163425387;0.01548550569954684;0.009100329844548201;5000.0;-4999.990899670155
0.46400000000000036;7999999999.0;8000000618.0;-619.0;6.114298029231891e-05;-0.04874126593470703;0.011676401319378193;-0.0034981010947099512;3666.6666666666665;-3666.6701647677614
0.46800000000000036;8000000000.0;8000000470.0;-471.0;3.2137340752563665e-05;-0.03706486461532884;0.008866007595621162;-0.007251409884938811;2583.3333333333335;-2583.3405847432186
0.47200000000000036;8000000000.0;8000000358.0;-358.0;8.254175117281838e-06;-0.028198857019707677;0.006750994360460241;-0.005970791408820457;1916.6666666666667;-1916.6726374580755
0.47600000000000037;8000000000.0;8000000273.0;-273.0;-4.377969699998499e-06;-0.021447862659247436;0.005076116834364718;-0.003158036204320084;1416.6666666666667;-1416.669824702871
0.48000000000000037;8000000000.0;8000000208.0;-208.0;-7.652668644493481e-06;-0.016371745824882718;0.0038873678551827207;-0.0008186747361237455;1166.6666666666667;-1166.6674853414029
0.4840000000000004;8000000000.0;8000000159.0;-159.0;-5.947636971839178e-06;-0.012484377969699997;0.002936725301055503;0.0004262579181635757;833.3333333333334;-833.3329070754152
0.4880000000000004;7999999999.0;8000000121.0;-121.0;-2.939086830447673e-06;-0.009547652668644494;0.002281705031672656;0.0007521375353478764;666.6666666666666;-666.6659145291313
