Zeit[sec];Sollposition[°];Istposition[°];Positionsschleppfehler[°];Sollgeschwindigkeit[°/s];Istgeschwindigkeit[°/s];Geschwindigkeitsdifferenz[°/s];Sollbeschleunigung[°/s*s];Istbeschleunigung[°/s*s];Beschleunigungsdifferenz[°/s*s]
0.0;0.0;5.0;-5.0;-0.0;-0.00021499999999999997;0.0;0.0;0.0;0.0
0.004;0.0;5.0;-5.0;-0.0;-0.00021499999999999997;0.0;0.0;0.0;0.0
0.008;0.0;5.0;-5.0;-0.0;-0.00021499999999999997;0.0;0.0;0.0;0.0
0.012;0.0;5.0;-5.0;-0.0;-0.00021499999999999997;0.0;0.0;0.0;0.0
0.016;0.0;5.0;-5.0;-0.0;-0.00021499999999999997;0.0;0.0;0.0;0.0
0.02;0.0;5.0;-5.0;-0.0;-0.00021499999999999997;0.0;0.0;0.0;0.0
0.024;0.0;5.0;-5.0;-0.0;-0.00021499999999999997;0.0;0.0;0.0;0.0
0.028;0.0;5.0;-5.0;-0.0;-0.00021499999999999997;0.0;0.0;0.0;0.0
0.032;0.0;5.0;-5.0;-0.0;-0.00021499999999999997;0.0;0.0;0.0;0.0
0.036000000000000004;0.0;5.0;-5.0;-0.0;-0.00021499999999999997;0.0;0.0;0.0;0.0
0.04000000000000001;0.0;5.0;-5.0;-0.0;-0.00021499999999999997;0.0;0.0;0.0;0.0
0.04400000000000001;0.0;5.0;-5.0;-0.0;-0.00021499999999999997;0.0;0.0;0.0;0.0
0.048000000000000015;0.0;5.0;-5.0;-0.0;-0.00021499999999999997;0.0;0.0;0.0;0.0
0.05200000000000002;0.0;5.0;-5.0;-0.0;-0.00021499999999999997;0.0;0.0;0.0;0.0
0.05600000000000002;0.0;5.0;-5.0;-0.0;-0.00021499999999999997;0.0;0.0;0.0;0.0
0.060000000000000026;0.0;5.0;-5.0;-0.0;-0.00021499999999999997;0.0;0.0;0.0;0.0
0.06400000000000003;0.0;5.0;-5.0;-0.0;-0.00021499999999999997;0.0;0.0;0.0;0.0
0.06800000000000003;0.0;5.0;-5.0;-0.0;-0.00021499999999999997;0.0;0.0;0.0;0.0
0.07200000000000004;3917.0;5.0;-5.0;0.9792807375445453;-0.00021499999999999997;0.0;244.8201843861363;0.0;244.8201843861363
0.07600000000000004;42953.0;5.0;3912.0;9.759191483833051;-0.00021499999999999997;1.1477117375445454;2194.9776865721265;0.0;2194.9776865721265
0.08000000000000004;234827.0;4594.0;38359.0;47.968405098586636;1.1474967375445453;10.261131746288507;9552.303403688396;0.0;9552.303403688396
0.08400000000000005;868666.0;50228.0;184599.0;158.4597249302308;11.408628483833052;44.49753361475358;27622.829957911043;0.0;27622.829957911043
0.08800000000000005;2474423.0;273852.0;594814.0;401.43928275445694;55.906162098586634;128.13056483164416;60744.88945605653;166.66666666666666;60578.22278938987
0.09200000000000005;5826266.0;1009998.0;1464425.0;837.9606216702731;184.0367269302308;280.3728308242262;109130.33472895404;583.3333333333334;108547.00139562071
0.09600000000000006;11862979.0;2867636.0;2958630.0;1509.1782887020222;464.40955775445696;500.77215391581615;167804.4167579373;1833.3333333333333;165971.08342460394
0.10000000000000006;21576265.0;6728362.0;5134617.0;2428.321250790207;965.1817116702731;764.785108031749;229785.74052204625;4166.666666666667;225619.07385537957
0.10400000000000006;35935880.0;13648229.0;7928036.0;3589.9036947172604;1729.9668197020221;1039.2599790881848;290395.6109817633;8250.0;282145.6109817633
0.10800000000000007;55850588.0;24725136.0;11210744.0;4978.676704261651;2769.226798790207;1302.7388879270534;347193.2523860977;14250.0;332943.2523860977
0.11200000000000007;82100046.0;41012998.0;14837590.0;6562.364191967489;4071.9656867172603;1544.7273875443911;395921.87192645954;22333.333333333332;373588.53859312617
0.11600000000000008;115221423.0;63479770.0;18620276.0;8280.343866496207;5616.693074261651;1746.3429857058381;429494.9186321794;32416.666666666668;397078.25196551275
0.12000000000000008;155422116.0;92931914.0;22289509.0;10050.172720198787;7363.03605996749;1875.7566935287177;442457.213425645;44416.666666666664;398040.54675897834
0.12400000000000008;202564403.0;129887085.0;25535031.0;11785.571261757581;9238.792753496207;1909.386299702579;433849.6353896985;57833.333333333336;376016.3020563652
0.12800000000000009;256198875.0;174479801.0;28084602.0;13408.61732400906;11148.179053198786;1845.030094558795;405761.5155628696;72333.33333333333;333428.18222953624
0.1320000000000001;315628833.0;226452637.0;29746238.0;14857.488771998107;12993.209147757581;1694.4964102514787;362217.86199726193;86916.66666666667;275301.19533059525
0.1360000000000001;380003077.0;285203459.0;30425374.0;16093.56018986038;14687.70555800906;1478.0742959890467;309017.8544655682;101166.66666666667;207851.18779890158
0.1400000000000001;448414316.0;349866578.0;30136499.0;17102.80914239148;16165.779853998107;1223.649792862272;252312.2381327753;114166.66666666667;138145.5714661086
0.1440000000000001;519978311.0;419424296.0;28990020.0;17890.997684335973;17389.42964686038;959.9503555311021;197047.1354861229;125583.33333333333;71463.80215278958
0.1480000000000001;593898564.0;492821816.0;27156495.0;18480.062541247215;18349.38000239148;709.346966944493;147266.21422781044;135166.66666666666;12099.547561143794
0.1520000000000001;669523958.0;569056723.0;24841841.0;18906.347447529275;19058.726969335974;489.5347349112417;106571.22657051514;142666.66666666666;-36095.44009615152
0.1560000000000001;746376325.0;647249769.0;22274189.0;19213.090876313378;19548.261704247216;315.8758702820596;76685.85719602561;148333.33333333334;-71647.47613730773
0.16000000000000011;824130642.0;726706319.0;19670006.0;19438.578296341806;19864.137574529275;194.76355978410356;56371.855007107115;152250.0;-95878.14499289289
0.16400000000000012;902565746.0;806941923.0;17188719.0;19608.775023030797;20058.90113431338;118.79207902842609;42549.18167224787;154916.66666666666;-112367.48499441879
0.16800000000000012;981515038.0;887652695.0;14913051.0;19737.32209736223;20177.693213341805;72.34300268899096;32136.768582858167;156500.0;-124363.23141714183
0.17200000000000013;1060836815.0;968652839.0;12862199.0;19830.44329513373;20250.036216030796;40.360438331434125;23280.29944287482;157500.0;-134219.70055712518
0.17600000000000013;1140407268.0;1049814425.0;11022390.0;19892.612431318215;20290.39665436223;14.009410771497642;15542.284046121495;158083.33333333334;-142541.04928721185
0.18000000000000013;1220124389.0;1131032049.0;9375219.0;19929.27920139796;20304.406065133728;-8.659216815511172;9166.692519936078;158500.0;-149333.30748006393
0.18400000000000014;1299911830.0;1212215036.0;7909353.0;19946.859302581986;20295.746848318217;-26.36546792025547;4395.025296006679;158583.33333333334;-154188.30803732667
0.18800000000000014;1379719959.0;1293292561.0;6619269.0;19952.031397581362;20269.38138039796;-37.89351081597488;1293.0237498439965;158500.0;-157206.976250156
0.19200000000000014;1459523185.0;1374218512.0;5501447.0;19950.805494748834;20231.487869581986;-42.894251000623626;-306.475708131984;158333.33333333334;-158639.80904146534
0.19600000000000015;1539313394.0;1454972886.0;4550299.0;19947.551365475105;20188.593618581363;-42.12526683252872;-813.5323184324079;158000.0;-158813.5323184324
0.20000000000000015;1619092051.0;1535558759.0;3754635.0;19944.663215645;20146.468351748834;-37.467681273730705;-722.0374575263122;157750.0;-158472.0374575263
0.20400000000000015;1698863838.0;1615994761.0;3097290.0;19942.945753782154;20109.000670475103;-31.15398483010358;-429.3654657112711;157333.33333333334;-157762.69879904462
0.20800000000000016;1778633002.0;1696306147.0;2557691.0;19942.29008929363;20077.846685645;-24.920218862844195;-163.91612213101325;157166.66666666666;-157330.58278879768
0.21200000000000016;1858402071.0;1776517852.0;2115150.0;19942.26626387656;20052.926466782155;-19.68492748852441;-5.956354267254937;156833.33333333334;-156839.2896876006
0.21600000000000016;1938171980.0;1856650818.0;1751253.0;19942.47645744337;20033.24153929363;-15.671396417070355;52.54839170174819;156500.0;-156447.45160829826
0.22000000000000017;2017942717.0;1936721098.0;1450882.0;19942.683374958662;20017.57014287656;-12.705759433192725;51.72937882343831;155833.33333333334;-155781.6039545099
0.22400000000000017;2097713925.0;2016740555.0;1202162.0;19942.800918761557;20004.864383443368;-10.488042484706966;29.385950723735732;154583.33333333334;-154553.9473826096
0.22800000000000017;2177485263.0;2096718060.0;995865.0;19942.833498103806;19994.37634095866;-8.753227197103115;8.14483556223422;152166.66666666666;-152158.52183110442
0.23200000000000018;2257256538.0;2176660552.0;824711.0;19942.817958862855;19985.623113761558;-7.327042657751008;-3.8848102376505267;148000.0;-148003.88481023765
0.23600000000000018;2337027697.0;2256573736.0;682802.0;19942.788674439205;19978.296071103807;-6.117626240949903;-7.321105912524217;141916.66666666666;-141923.9877725792
0.24000000000000019;2416798761.0;2336462449.0;565248.0;19942.765107689826;19972.178444862857;-5.084106423651974;-5.8916873449561535;133750.0;-133755.89168734496
0.2440000000000002;2496569777.0;2416330826.0;467935.0;19942.752944626598;19967.094338439205;-4.208025749379885;-3.040765806872514;123583.33333333333;-123586.3740991402
0.2480000000000002;2576340781.0;2496182371.0;387406.0;19942.750058376332;19962.886312689825;-3.474910063225252;-0.7215625664684922;111583.33333333333;-111584.0548958998
0.25200000000000017;2656111792.0;2576020016.0;320765.0;19942.751997924548;19959.4114026266;-2.8684492502688954;0.4848870539717609;98083.33333333333;-98082.84844627936
0.25600000000000017;2735882817.0;2655846187.0;265605.0;19942.7551092199;19956.54295337633;-2.3699404517828953;0.7778238377795788;83666.66666666667;-83665.88884282889
0.2600000000000002;2815653850.0;2735662879.0;219938.0;19942.757478051444;19954.173012924548;-1.96056970464997;0.5922078862568014;69000.0;-68999.40779211375
0.2640000000000002;2895424889.0;2815471728.0;182122.0;19942.758630028242;19952.212443219898;-1.6237191684522259;0.2879941994251567;54750.0;-54749.712005800575
0.2680000000000002;2975195928.0;2895274082.0;150807.0;19942.758849880352;19950.588724051446;-1.3453930232026323;0.054963027650956064;41666.666666666664;-41666.61170363901
0.2720000000000002;3054966966.0;2975071055.0;124873.0;19942.758614009304;19949.243331028243;-1.11494214789127;-0.058967762015527114;30166.666666666668;-30166.725634428683
0.2760000000000002;3134738003.0;3054863568.0;103398.0;19942.75828950526;19948.128388880352;-0.9236608710489236;-0.08112601153698051;20666.666666666668;-20666.747792678205
0.2800000000000002;3214509039.0;3134652386.0;85617.0;19942.758056822324;19947.204728009303;-0.7649075040462776;-0.05817073360958602;13166.666666666666;-13166.724837400276
0.2840000000000002;3294280075.0;3214438145.0;70894.0;19942.757951768923;19946.439820505257;-0.633321682933456;-0.0262633502643439;7583.333333333333;-7583.359596683597
0.2880000000000002;3374051110.0;3294221370.0;58705.0;19942.757938654537;19945.806498822323;-0.5242320534016471;-0.0032785965231596492;3583.3333333333335;-3583.3366119298566
0.2920000000000002;3453822146.0;3374002499.0;48611.0;19942.75796730742;19945.28226676892;-0.4340551143832272;0.007163221198425163;1000.0;-999.9928367788016
0.2960000000000002;3533593182.0;3453781891.0;40255.0;19942.758001410846;19944.84821165454;-0.35927934711799026;0.008525856173946522;-750.0;750.008525856174
0.3000000000000002;3613364217.0;3533559846.0;33336.0;19942.758024365565;19944.48893230742;-0.29748289657436544;0.005738679647038225;-1666.6666666666667;1666.6724053463138
0.3040000000000002;3693135253.0;3613336611.0;27606.0;19942.758033913375;19944.191449410846;-0.24636704528165865;0.0023869524738984182;-2333.3333333333335;2333.3357202858074
0.3080000000000002;3772906289.0;3693112391.0;22862.0;19942.75803439108;19943.945082365564;-0.20398245218893862;0.00011942665878450498;-2583.3333333333335;2583.3334527599923
0.3120000000000002;3852677325.0;3772887355.0;18934.0;19942.75803106964;19943.741099913375;-0.16890352229529526;-0.0008303604772663675;-2750.0;2749.9991696395227
0.3160000000000002;3932448361.0;3852661643.0;15682.0;19942.758027532414;19943.57219639108;-0.1398393214403768;-0.000884306246007327;-2666.6666666666665;2666.6657823604205
0.32000000000000023;4012219397.0;3932435372.0;12989.0;19942.758025291132;19943.43235706964;-0.1158025372242264;-0.0005603205863735639;-2500.0;2499.9994396794136
0.32400000000000023;4091990433.0;4012208638.0;10759.0;19942.75802444081;19943.316554532415;-0.09589224128285423;-0.00021258074411889538;-2250.0;2249.999787419256
0.32800000000000024;4171761469.0;4091981520.0;8913.0;19942.758024476752;19943.220662291133;-0.07937885032515624;8.985807653516531e-06;-1916.6666666666667;1916.6666756524744
0.33200000000000024;4251532505.0;4171754085.0;7384.0;19942.75802485173;19943.141283440807;-0.0657469640536874;9.374434739584103e-05;-1666.6666666666667;1666.6667604110141
0.33600000000000024;4331303541.0;4251526387.0;6118.0;19942.758025215266;19943.075536476754;-0.05443762502545724;9.088398655876517e-05;-1333.3333333333333;1333.3334242173198
0.34000000000000025;4411074576.0;4331298471.0;5070.0;19942.758025431795;19943.02109885173;-0.04506363646214595;5.4132215154822916e-05;-1083.3333333333333;1083.3333874655484
0.34400000000000025;4490845612.0;4411070375.0;4201.0;19942.75802550555;19942.976035215266;-0.03736678347195266;1.8439095583744347e-05;-833.3333333333334;833.333351772429
0.34800000000000025;4570616648.0;4490842129.0;3483.0;19942.758025493855;19942.938668431794;-0.03087392624365748;-2.9240254661999643e-06;-666.6666666666666;666.6666637426412
0.35200000000000026;4650387684.0;4570613760.0;2888.0;19942.75802545207;19942.90779450555;-0.02558501169551164;-1.0446456144563854e-05;-583.3333333333334;583.3333228868772
0.35600000000000026;4730158720.0;4650385288.0;2396.0;19942.758025415005;19942.882209493855;-0.02115604178470676;-9.265932021662593e-06;-500.0;499.999990734068
0.36000000000000026;4809929756.0;4730156732.0;1988.0;19942.75802539436;19942.86105345207;-0.017544037065817975;-5.161382432561368e-06;-416.6666666666667;416.66666150528425
0.36400000000000027;4889700792.0;4809928106.0;1650.0;19942.758025388142;19942.843509415005;-0.01453402064362308;-1.5543264453299344e-06;-333.3333333333333;333.33333177900687
0.36800000000000027;4969471828.0;4889699421.0;1371.0;19942.758025390132;19942.82897539436;-0.011997006218734896;4.974936018697917e-07;-250.0;250.0000004974936
0.3720000000000003;5049242864.0;4969470688.0;1140.0;19942.75802539461;19942.816978388142;-0.009932998011208838;1.1195879778824747e-06;-250.0;250.00000111958798
0.3760000000000003;5129013900.0;5049241916.0;948.0;19942.75802539834;19942.80704539013;-0.008255995518993586;9.322320693172514e-07;-250.0;250.00000093223207
0.3800000000000003;5208784935.0;5129013111.0;789.0;19942.75802540033;19942.798789394612;-0.006836996271886164;4.974936018697917e-07;-166.66666666666666;166.66666716416026
0.3840000000000003;5288555971.0;5208784278.0;657.0;19942.75802540108;19942.79195239834;-0.005675998010701733;1.8735590856522322e-07;-166.66666666666666;166.66666685402257
0.3880000000000003;5368327007.0;5288555423.0;548.0;19942.75802540058;19942.78627640033;-0.004686999251134694;-1.2460077414289117e-07;-83.33333333333333;83.33333320873255
0.3920000000000003;5448098043.0;5368326549.0;458.0;19942.758025400082;19942.78158940108;-0.0038700004988641012;-1.2460077414289117e-07;-83.33333333333333;83.33333320873255
0.3960000000000003;5527869079.0;5448097659.0;384.0;19942.75802539983;19942.77771940058;-0.003182000498782145;-6.275513442233205e-08;-83.33333333333333;83.3333332705782
0.4000000000000003;5607640115.0;5527868757.0;322.0;19942.75802539983;19942.77453740008;-0.00266600024770014;0.0;-83.33333333333333;83.33333333333333
0.4040000000000003;5687411151.0;5607639844.0;271.0;19942.758025399584;19942.771871399833;-0.002193000000261236;-6.184563972055912e-08;-83.33333333333333;83.33333327148769
0.4080000000000003;5767182187.0;5687410922.0;229.0;19942.758025399584;19942.769678399833;-0.0018060002475976944;0.0;0.0;0.0
0.4120000000000003;5846953223.0;5767181993.0;194.0;19942.75802539983;19942.767872399585;-0.0015050000001792796;6.184563972055912e-08;0.0;6.184563972055912e-08
0.4160000000000003;5926724258.0;5846953058.0;165.0;19942.758025399584;19942.766367399585;-0.001246999752765987;-6.184563972055912e-08;0.0;-6.184563972055912e-08
0.4200000000000003;6006495294.0;5926724118.0;140.0;19942.758025399333;19942.765120399832;-0.0010750002475106157;-6.275513442233205e-08;0.0;-6.275513442233205e-08
0.4240000000000003;6086266330.0;6006495174.0;120.0;19942.75802539983;19942.764045399585;-0.0008600002511229832;1.2460077414289117e-07;0.0;1.2460077414289117e-07
0.4280000000000003;6166037366.0;6086266226.0;104.0;19942.758025399584;19942.763185399333;-0.0006879995016788598;-6.184563972055912e-08;0.0;-6.184563972055912e-08
0.43200000000000033;6245808402.0;6166037275.0;91.0;19942.75802539983;19942.76249739983;-0.0005590002474491484;6.184563972055912e-08;-83.33333333333333;83.33333339517897
0.43600000000000033;6325579438.0;6245808322.0;80.0;19942.758025399333;19942.761938399584;-0.00047299975267378613;-1.2460077414289117e-07;-83.33333333333333;83.33333320873255
0.44000000000000034;6405350474.0;6325579367.0;71.0;19942.758025399584;19942.76146539983;-0.00038700049844919704;6.275513442233205e-08;-83.33333333333333;83.33333339608846
0.44400000000000034;6485121510.0;6405350411.0;63.0;19942.75802539983;19942.761078399333;-0.0003439997490204405;6.184563972055912e-08;0.0;6.184563972055912e-08
0.44800000000000034;6564892546.0;6485121453.0;57.0;19942.75802540033;19942.760734399584;-0.00025799975264817476;1.2460077414289117e-07;0.0;1.2460077414289117e-07
0.45200000000000035;6644663581.0;6564892494.0;52.0;19942.758025399584;19942.76047639983;-0.0002149995016225148;-1.864464138634503e-07;0.0;-1.864464138634503e-07
0.45600000000000035;6724434617.0;6644663535.0;46.0;19942.758025399584;19942.76026140033;-0.0002580007458163891;0.0;0.0;0.0
0.46000000000000035;6804205653.0;6724434575.0;42.0;19942.758025399584;19942.760003399584;-0.0001720000000204891;0.0;0.0;0.0
0.46400000000000036;6883976689.0;6804205614.0;39.0;19942.75802539983;19942.759831399584;-0.00012900000001536682;6.184563972055912e-08;0.0;6.184563972055912e-08
0.46800000000000036;6963747718.0;6883976652.0;37.0;19942.75634188141;19942.759702399584;-8.599975262768567e-05;-0.42087960537173785;0.0;-0.42087960537173785
0.47200000000000036;7043518697.0;6963747690.0;28.0;19942.74377328479;19942.75961639983;-0.002070518421533052;-3.1421491548826452;0.0;-3.1421491548826452
0.47600000000000037;7123289494.0;7043518720.0;-23.0;19942.698201927662;19942.75754588141;-0.014761596619791817;-11.392839282052591;0.0;-11.392839282052591
0.48000000000000037;7203059040.0;7123289691.0;-197.0;19942.385601396432;19942.74278428479;-0.05305335712910164;-78.15013280742278;0.0;-78.15013280742278
0.4840000000000004;7282821718.0;7203060449.0;-1409.0;19940.668493468267;19942.68973092766;-0.36471653122862335;-429.2769820413014;0.0;-429.2769820413014
0.4880000000000004;7362561179.0;7282829749.0;-8031.0;19934.864330411667;19942.325014396432;-2.0018539281663834;-1451.0407641500933;0.0;-1451.0407641500933
0.4920000000000004;7442245344.0;7362591041.0;-29862.0;19921.040350207226;19940.323160468266;-6.74289605659942;-3455.9950511102215;0.0;-3455.9950511102215
0.4960000000000004;7521824543.0;7442325362.0;-80018.0;19894.798919923458;19933.580264411667;-15.980688204439502;-6560.35757094196;0.0;-6560.35757094196
0.5000000000000003;7601231690.0;7521995760.0;-171217.0;19851.785699249052;19917.599576207227;-30.162987283769326;-10753.3051686014;-83.33333333333333;-10669.971835268067
0.5040000000000003;7680383084.0;7601545506.0;-313816.0;19787.84753532741;19887.436588923458;-49.1449776744048;-15984.540980410202;-250.0;-15734.540980410202
0.5080000000000003;7759177005.0;7680898672.0;-515588.0;19698.479287901577;19838.291611249053;-72.61435992164115;-22342.061856458713;-500.0;-21842.061856458713
0.5120000000000003;7837489031.0;7759961381.0;-784376.0;19578.00561344319;19765.67725132741;-100.9261314258365;-30118.41861459652;-833.3333333333334;-29285.08528126319
0.5160000000000003;7915158062.0;7838620385.0;-1131354.0;19417.256771019856;19664.751119901575;-135.39372845838443;-40187.21060583357;-1416.6666666666667;-38770.543939166906
0.5200000000000004;7991940362.0;7916737814.0;-1579752.0;19195.574273569186;19529.35739144319;-180.02995642333553;-55420.624362667695;-2250.0;-53170.624362667695
