Zeit[sec];Sollposition[°];Istposition[°];Positionsschleppfehler[°];Sollgeschwindigkeit[°/s];Istgeschwindigkeit[°/s];Geschwindigkeitsdifferenz[°/s];Sollbeschleunigung[°/s*s];Istbeschleunigung[°/s*s];Beschleunigungsdifferenz[°/s*s]
0.0;0.0;10986.0;-10986.0;3.1588476123816897e-31;3.96783971432202;-4.44023771432202;-4.108465799113545e-29;0.0;-4.108465799113545e-29
0.004;0.0;0.0;0.0;1.3000546342358174e-31;-2.66391834842772;2.66391834842772;-4.646982445364681e-29;0.0;-4.646982445364681e-29
0.008;0.0;10986.0;-10986.0;6.559194681606529e-33;3.2613239399513554;-3.7337219399513555;-3.08615671854938e-29;0.0;-3.08615671854938e-29
0.012;0.0;10986.0;-10986.0;-4.457558939872448e-32;3.089054996658075;-3.5614529966580752;-1.278369602008275e-29;0.0;-1.278369602008275e-29
0.016;0.0;0.0;0.0;-4.72923963969414e-32;-2.189964746579282;2.189964746579282;-6.792017495542307e-31;0.0;-6.792017495542307e-31
0.02;0.0;10986.0;-10986.0;-2.9818157956855514e-32;4.4092616257177415;-4.881659625717742;4.368559610021472e-30;0.0;4.368559610021472e-30
0.024;0.0;10986.0;-10986.0;-1.118927208705515e-32;2.394710205056815;-2.867108205056815;4.657221467450091e-30;83.33333333333333;-83.33333333333333
0.028;0.0;10986.0;-10986.0;6.014577561120483e-34;3.683400651129149;-4.155798651129149;2.9476824607917996e-30;-83.33333333333333;83.33333333333333
0.032;0.0;10986.0;-10986.0;5.057643750108354e-33;4.5633218766697565;-5.035719876669757;1.1140464984990763e-30;0.0;1.1140464984990763e-30
0.036000000000000004;-4469.0;0.0;0.0;-1.1174143927100537;-1.3949582787487589;1.3949582787487589;-279.35359817751345;-83.33333333333333;-196.0202648441801
0.04000000000000001;-49012.0;0.0;-1772.0;-11.13578630433594;-2.8235423553845056;2.3043090082748554;-2504.592977906472;83.33333333333333;-2587.9263112398053
0.04400000000000001;-267951.0;5493.0;-27596.0;-54.734647785379394;-0.5149901316383889;-5.754632837012923;-10899.715370260863;0.0;-10899.715370260863
0.048000000000000015;-990724.0;-5493.0;-130064.0;-180.69328982202373;-2.6427153021397793;-31.31338894929956;-31489.660509161084;-83.33333333333333;-31406.32717582775
0.05200000000000002;-2818982.0;-10986.0;-542250.0;-457.0644295371269;-1.7335390239013133;-126.00303014623523;-69092.78492877579;-83.33333333333333;-69009.45159544246
0.05600000000000002;-6626827.0;-65918.0;-1645447.0;-951.9611347431941;-13.27847459267291;-347.00783590914773;-123724.1763015168;-583.3333333333334;-123140.84296818345
0.060000000000000026;-13463939.0;-368042.0;-3949979.0;-1709.2780819838201;-89.3857699474403;-732.1272052961051;-189329.23681015652;-2750.0;-186579.23681015652
0.06400000000000003;-24413138.0;-1587524.0;-7727799.0;-2737.299487426085;-342.31940573969587;-1239.301637125039;-257005.3513605662;-14333.333333333334;-242672.01802723284
0.06800000000000003;-40481204.0;-6701660.0;-11063404.0;-4017.0162758885604;-1405.4831276213854;-1182.6783467980954;-319929.19711561885;-58666.666666666664;-261262.53044895222
0.07200000000000004;-62545396.0;-17067261.0;-13652459.0;-5516.047952174302;-2663.806508593563;-1161.9128639605597;-374757.91907143535;-161083.33333333334;-213674.58573810203
0.07600000000000004;-91312114.0;-33541260.0;-15593902.0;-7191.678972886326;-4204.016301420109;-1070.3820571884098;-418907.755178006;-265250.0;-153657.75517800602
0.08000000000000004;-127261751.0;-56694946.0;-17126722.0;-8987.408896410465;-5881.721057917456;-1026.3540695062275;-448932.48088103475;-354750.0;-94182.48088103473
0.08400000000000005;-170606460.0;-87324829.0;-18072199.0;-10836.176727057022;-7742.464067287632;-928.4801684839767;-462191.9576616392;-398000.0;-64191.95766163921
0.08800000000000005;-221265823.0;-126150513.0;-18086095.0;-12664.840070693477;-9801.60345723192;-685.9932270119007;-457165.83590911387;-445083.3333333333;-12082.502575780552
0.09200000000000005;-278844018.0;-173182983.0;-17255150.0;-14394.548175026168;-11845.267978077387;-447.0840178590479;-432427.02608317265;-483416.6666666667;50989.64058349401
0.09600000000000006;-342642113.0;-228521118.0;-15276727.0;-15949.522958902027;-13904.226792312584;-92.59995178055397;-388743.69596896484;-507500.0;118756.30403103514
0.10000000000000006;-411748888.0;-291373901.0;-12427693.0;-17276.692896578952;-15761.687232992905;226.36006206478487;-331792.4844192312;-510833.3333333333;179040.84891410213
0.10400000000000006;-485184220.0;-359945068.0;-9722985.0;-18358.832222796747;-17178.99781246061;294.2955356742277;-270534.8315544488;-476083.3333333333;205548.5017788845
0.10800000000000007;-562023039.0;-433361206.0;-7098721.0;-19209.703787746803;-18399.907640204972;396.6947925612112;-212717.89123751386;-411833.3333333333;199115.44209581945
0.11200000000000007;-641459111.0;-511094971.0;-4124355.0;-19859.017156408543;-19471.71042908;604.5143207633155;-162328.34216543505;-341333.3333333333;179004.99116789826
0.11600000000000008;-722816717.0;-591509399.0;-1558574.0;-20339.400371533753;-20096.259650828622;567.0801515047096;-120095.8037813025;-279000.0;158904.1962186975
0.12000000000000008;-805534629.0;-673549805.0;299120.0;-20679.4771388061;-20531.47279005333;498.65792535488436;-85019.19181808716;-211166.66666666666;126147.4748485795
0.12400000000000008;-889150737.0;-756760254.0;1623882.0;-20904.025865572814;-20818.727899828802;417.1340751721764;-56137.18169167805;-145750.0;89612.81830832195
0.12800000000000009;-973302528.0;-840613403.0;2410969.0;-21037.946879867013;-20961.893382512477;299.050486425469;-33480.25357354982;-89583.33333333333;56103.07975978351
0.1320000000000001;-1057729723.0;-925103760.0;3078091.0;-21106.797778098833;-21126.154184440187;302.704357411465;-17212.72455795497;-60750.0;43537.27544204503
0.1360000000000001;-1142264702.0;-1009572144.0;3288629.0;-21133.743601379996;-21104.35978887687;181.31034409936547;-6736.455820290757;-39250.0;32513.544179709243
0.1400000000000001;-1226814544.0;-1094529419.0;3777588.0;-21137.459607841844;-21208.05361124247;253.41194247297244;-929.001615461857;-22500.0;21570.998384538143
0.1440000000000001;-1311340333.0;-1178981323.0;3689252.0;-21131.446134017107;-21118.865887624215;142.44466942799045;1503.3684561840346;-11416.666666666666;12920.0351228507
0.1480000000000001;-1395835832.0;-1263438721.0;3606432.0;-21123.873907807414;-21102.473699615024;122.49668965951787;1893.0565524233316;2500.0;-606.9434475766684
0.1520000000000001;-1480309322.0;-1346923828.0;2577618.0;-21118.371340485846;-20892.49300148959;-125.14852434959539;1375.6418303919418;15666.666666666666;-14291.024836274724
0.1560000000000001;-1564771703.0;-1430749512.0;1916352.0;-21115.59419755551;-20943.261388788156;-96.07206956680238;694.2857325839213;21916.666666666668;-21222.380934082747
0.16000000000000011;-1649230964.0;-1514696045.0;1393671.0;-21114.814232854238;-21019.933338211235;-37.441297100991505;194.9911753181368;13583.333333333334;-13388.342158015197
0.16400000000000012;-1733691082.0;-1599307251.0;1543667.0;-21115.028679700754;-21102.136442648705;53.21289758844796;-53.61171162894607;-10000.0;9946.388288371054
0.16800000000000012;-1818153071.0;-1683440552.0;1217349.0;-21115.496101121593;-21074.119958295192;11.562137511366018;-116.85535520973644;-12416.666666666666;12299.81131145693
0.17200000000000013;-1902616477.0;-1768315430.0;1631373.0;-21115.850485168365;-21190.47282289735;145.40911343118933;-88.59601169297093;-16416.666666666668;16328.070654973697
0.17600000000000013;-1987080504.0;-1852838745.0;1692148.0;-21116.00589784462;-21121.88670968129;79.01520361980147;-38.85316906416847;-5833.333333333333;5794.480164269165
0.18000000000000013;-2071544085.0;-1936900635.0;1290394.0;-21115.894297936076;-21008.29357031691;-52.129515080243436;27.899977136257803;-916.6666666666666;944.5666438029244
0.18400000000000014;-2156003863.0;-2021149292.0;1075204.0;-21114.943335057687;-21039.233955136628;-30.493012466849905;237.74071959724097;9250.0;-9012.259280402759
0.18800000000000014;-2240450426.0;-2105760498.0;1224334.0;-21111.63976209007;-21182.57767733926;119.70612941995932;825.8932419039411;8166.666666666667;-7340.773424762726
0.19200000000000014;-2324861848.0;-2190239868.0;1249144.0;-21102.854560576292;-21079.337684660317;19.41178461785239;2196.300378444903;-9500.0;11696.300378444903
0.19600000000000015;-2409187520.0;-2274373169.0;949737.0;-21081.4168849828;-21062.097383744356;-5.239849087112816;5359.418898373406;83.33333333333333;5276.085565040073
0.20000000000000015;-2493322508.0;-2358649292.0;848231.0;-21033.746067638098;-21019.260748219604;-38.67165173766625;11917.70433617512;-750.0;12667.70433617512
0.20400000000000015;-2577086040.0;-2442266235.0;214603.0;-20940.88201130097;-20946.19913637224;-107.21469677033383;23216.014084281596;20333.333333333332;2882.680750948264
0.20800000000000016;-2660207750.0;-2526339111.0;298650.0;-20780.426621099195;-21007.25525546873;22.890963972051395;40113.84755044401;4666.666666666667;35447.18088377734
0.21200000000000016;-2742316785.0;-2610549316.0;997619.0;-20527.257599120505;-21052.01165637277;217.10119184125142;63292.255494672645;4750.0;58542.255494672645
0.21600000000000016;-2822941208.0;-2693155518.0;879860.0;-20156.10480205289;-20591.06609084654;-52.0891571060165;92788.19926690357;3000.0;89788.19926690357
0.22000000000000017;-2901523655.0;-2774289551.0;487550.0;-19645.610940968232;-20302.012203196107;-58.6078733876966;127623.4652711646;47333.333333333336;80290.13193783126
0.22400000000000017;-2977444948.0;-2854374390.0;748878.0;-18980.322332252137;-19983.3536400841;59.67870806438441;166322.15217902377;71083.33333333333;95238.81884569043
0.22800000000000017;-3050050060.0;-2932135620.0;970803.0;-18151.27699214777;-19433.566589547077;90.48554083294948;207261.33502609172;98666.66666666667;108594.66835942506
0.23200000000000018;-3118680720.0;-3007348022.0;1561133.0;-17157.664338445997;-18786.233132341662;197.84486716578613;248403.16342544337;107666.66666666667;140736.49675877672
0.23600000000000018;-3182712083.0;-3079127197.0;2291573.0;-16007.83993054155;-17878.14015014121;214.4950014488022;287456.10197611176;147750.0;139706.10197611176
0.24000000000000019;-3241582374.0;-3146791992.0;3125970.0;-14717.572192930791;-16834.123778739347;260.94161287830866;322566.9344026896;191416.66666666666;131150.26773602297
0.2440000000000002;-3294818114.0;-3208853760.0;3175710.0;-13308.934307270474;-15434.779475018762;68.32881961642852;352159.4714150792;241916.66666666666;110242.80474841257
0.2480000000000002;-3342060181.0;-3265136719.0;2792149.0;-11810.516124030624;-14034.114335290935;-12.452701467551378;374604.5458099625;304416.6666666667;70187.87914329578
0.25200000000000017;-3383083905.0;-3315860596.0;2623669.0;-10255.930606839564;-12582.453663014983;-27.81721799629122;388646.3792977652;336416.6666666667;52229.71263109849
0.25600000000000017;-3417822459.0;-3361107788.0;3059150.0;-8684.638018620579;-11235.674299641676;164.29069873616936;392823.14705474616;355416.6666666667;37406.4803880795
0.2600000000000002;-3446402045.0;-3399796143.0;3179318.0;-7144.896170904113;-9605.89370070951;100.55782813730548;384935.4619291164;355916.6666666667;29018.795262449712
0.2640000000000002;-3469159151.0;-3432436523.0;3486251.0;-5689.276086979815;-8089.309810558012;155.85737658154267;363905.0209810746;375000.0;-11094.979018925414
0.2680000000000002;-3486615480.0;-3458792725.0;3535302.0;-4364.08215589164;-6531.871073338878;107.10158275798676;331298.48277204385;383750.0;-52451.517227956174
0.2720000000000002;-3499426357.0;-3480183105.0;4236135.0;-3202.719196205032;-5305.994967231872;315.76234884412133;290340.7399216519;380000.0;-89659.2600783481
0.2760000000000002;-3508324995.0;-3496723022.0;5130513.0;-2224.6591959302245;-4077.7144233163262;386.94178545422255;244515.00006870186;346750.0;-102234.99993129815
0.2800000000000002;-3514071214.0;-3508247681.0;5368217.0;-1436.5548167632896;-2826.861907071458;235.95668869594056;197026.09479173372;321333.3333333333;-124307.23854159958
0.2840000000000002;-3517412370.0;-3515625000.0;5073859.0;-835.2889194649971;-1826.0601803633533;126.31717332779249;150316.47432457312;300666.6666666667;-150350.19234209356
0.2880000000000002;-3519058346.0;-3520063477.0;4701216.0;-411.49393342744725;-1099.3697056479975;98.74191128714301;105948.74650938746;273500.0;-167551.25349061255
0.2920000000000002;-3519648519.0;-3522606812.0;4561415.0;-147.54327175251314;-630.0425584358424;155.39953177113046;65987.66541873352;220416.66666666666;-154429.00124793313
0.2960000000000002;-3519697792.0;-3523683472.0;4400776.0;-12.318227476204441;-266.37515081754515;146.28372476881458;33806.261069077176;156250.0;-122443.73893092283
0.3000000000000002;-3519554343.0;-3523765869.0;4101272.0;35.86226819669532;-13.778368697520346;94.65782420098715;12045.12391822494;109083.33333333333;-97038.20941510839
0.3040000000000002;-3519403674.0;-3523694458.0;4053831.0;37.66705761152661;4.789719722049311;175.51726527197485;451.1973537078227;72416.66666666667;-71965.46931295886
0.3080000000000002;-3519311754.0;-3523639526.0;4144081.0;22.98003029098822;14.682410972638056;199.80860343537267;-3671.756830134597;37166.666666666664;-40838.42349680126
0.3120000000000002;-3519278518.0;-3523573608.0;4205497.0;8.309119202910294;15.54499767174013;197.1246791540146;-3667.727772019482;12666.666666666666;-16334.394438686148
0.3160000000000002;-3519280371.0;-3523551636.0;4252522.0;-0.46320468526759434;5.453398545978591;194.65434753227245;-2193.080972044472;-1166.6666666666667;-1026.4143053778052
0.32000000000000023;-3519294412.0;-3523535156.0;4255709.0;-3.510411684406287;11.138580765660853;176.77389845280516;-761.8017497846732;-666.6666666666666;-95.13508311800658
0.32400000000000023;-3519307112.0;-3523496704.0;4210777.0;-3.1749792684299853;9.708589198378846;169.73484748906242;83.85810399407545;-500.0;583.8581039940755
0.32800000000000024;-3519313893.0;-3523359375.0;4060010.0;-1.6952130947991015;31.628693736074492;139.5921730198216;369.9415434077209;1000.0;-630.0584565922791
0.33200000000000024;-3519315434.0;-3523304443.0;3994717.0;-0.3852736207260263;15.352092558989302;153.83049791477228;327.4848685182688;2083.3333333333335;-1755.8484648150647
0.33600000000000024;-3519314166.0;-3523287964.0;3973500.0;0.31704641679818935;5.282545637764037;164.39344129614793;175.5800093810539;-166.66666666666666;342.24667604772054
0.34000000000000025;-3519312220.0;-3523233032.0;3918111.0;0.4863903990412429;11.651187123661861;156.71309575014135;42.33599556076339;-1083.3333333333333;1125.6693288940967
0.34400000000000025;-3519310762.0;-3523139648.0;3826247.0;0.3647405459785741;23.369222602883355;141.53947190042493;-30.41246326566721;-666.6666666666666;636.2542034009995
0.34800000000000025;-3519310120.0;-3522936401.0;3624749.0;0.16046729067155324;51.717312054345385;104.58406082885004;-51.06831382675521;2416.6666666666665;-2467.7349804934215
0.35200000000000026;-3519310171.0;-3522496948.0;3186433.0;-0.012767281468454727;117.52313490477205;19.777946279346295;-43.30864303500199;5416.666666666667;-5459.975309701669
0.35600000000000026;-3519310636.0;-3521755371.0;2445227.0;-0.11633384057951185;184.91562533192152;-79.67788492869768;-25.89163977776428;11250.0;-11275.891639777765
0.36000000000000026;-3519311231.0;-3521019287.0;1708932.0;-0.1487400657248662;178.65781046755427;-105.22654922513003;-8.101556286338587;12916.666666666666;-12924.768222953006
0.36400000000000027;-3519311726.0;-3520382080.0;1071211.0;-0.12370269311520177;161.3747771022059;-115.44127966940539;6.259343152416108;7833.333333333333;-7827.073990180917
0.36800000000000027;-3519311981.0;-3519656982.0;345558.0;-0.06384085894093362;190.01615529463254;-175.29578455311133;14.965458543567037;1000.0;-985.034541456433
0.3720000000000003;-3519311964.0;-3518745117.0;-566707.0;0.004325174277878612;225.2121826086324;-249.68069872319822;17.041508304703058;1416.6666666666667;-1399.6251583619637
0.3760000000000003;-3519311729.0;-3517756348.0;-1555624.0;0.058696031463548355;244.05821549156494;-310.9872123363722;13.592714296417435;5833.333333333333;-5819.740619036916
0.3800000000000003;-3519311378.0;-3516756592.0;-2555278.0;0.0877205711375642;243.20142224710995;-353.052893287854;7.256134918503959;7250.0;-7242.743865081496
0.3840000000000003;-3519311015.0;-3516042480.0;-3269110.0;0.09091213405743327;165.07620223543793;-305.5780470067336;0.7978907299672697;1083.3333333333333;-1082.535442603366
0.3880000000000003;-3519310713.0;-3515734863.0;-3576372.0;0.07550804880699709;77.01707361645252;-230.71225370613337;-3.851021312609046;-9916.666666666666;9912.815645354058
0.3920000000000003;-3519310505.0;-3515674438.0;-3636458.0;0.05187710203740827;16.767634607061744;-173.0505426526704;-5.907736692397204;-17416.666666666668;17410.758929974272
0.3960000000000003;-3519310389.0;-3515679932.0;-3630700.0;0.029132338680752677;4.880096851604059;-160.93396784563447;-5.686190839163899;-18500.0;18494.313809160834
0.4000000000000003;-3519310339.0;-3515723877.0;-3586582.0;0.01242672167171576;-14.208725820712745;-139.97130255794627;-4.176404252259229;-9916.666666666666;9912.490262414407
0.4040000000000003;-3519310328.0;-3515674438.0;-3635931.0;0.0028157838425854806;13.033997864589095;-169.35638877191494;-2.4027344572825697;-3916.6666666666665;3914.263932209384
0.4080000000000003;-3519310332.0;-3515646973.0;-3663361.0;-0.0011993761944586842;16.87898701858334;-174.39479599911132;-1.0037900092610412;666.6666666666666;-667.6704566759277
0.4120000000000003;-3519310340.0;-3515646973.0;-3663357.0;-0.0019153663331798563;-14.851530447132886;-142.67154040314662;-0.178997534680293;1416.6666666666667;-1416.845664201347
0.4160000000000003;-3519310345.0;-3515734863.0;-3575472.0;-0.0012762459618370979;-22.53527290648408;-131.21148282226687;0.15978009283568959;-1333.3333333333333;1333.493113426169
0.4200000000000003;-3519310347.0;-3515811768.0;-3498574.0;-0.0004549574126592878;-18.904857124950738;-131.535482644875;0.20532213729445253;-2416.6666666666665;2416.871988803961
0.4240000000000003;-3519310347.0;-3515789795.0;-3520551.0;7.252525184770899e-05;14.765491990147158;-166.1501393528703;0.1318706661267492;-2416.6666666666665;2416.7985373327933
0.4280000000000003;-3519310346.0;-3515751343.0;-3559004.0;0.0002594620491284919;-17.370002470871434;-135.66742016014723;0.04673419932019572;4166.666666666667;-4166.619932467347
0.43200000000000033;-3519310345.0;-3516015015.0;-3295331.0;0.0002320353360031868;-49.438748136404904;-92.26034131154276;-0.00685667828132627;-2250.0;2249.993143321719
0.43600000000000033;-3519310344.0;-3515943604.0;-3366741.0;0.00012871379702143033;2.950862332729623;-147.72047784027117;-0.025830384745439118;-166.66666666666666;166.64083628192122
0.44000000000000034;-3519310344.0;-3516075439.0;-3234905.0;3.572895146655877e-05;-33.73790294535831;-105.36282082394487;-0.02324621138871789;-3166.6666666666665;3166.643420455278
0.44400000000000034;-3519310344.0;-3516339111.0;-2971233.0;-1.632551331552655e-05;-45.285581297403205;-82.47734525043509;-0.013013616195521329;-916.6666666666666;916.6536530504711
0.44800000000000034;-3519310344.0;-3516256714.0;-3053630.0;-3.132225061106997e-05;-2.3672649212516843;-128.93880944373265;-0.0037491843238858557;583.3333333333334;-583.3370825176572
0.45200000000000035;-3519310344.0;-3516838989.0;-2471355.0;-2.541688342828833e-05;-159.48838511857392;53.220098152109685;0.0014763417956954105;-3833.3333333333335;3833.3348096751292
0.45600000000000035;-3519310344.0;-3517196045.0;-2114299.0;-1.3323703317556424e-05;-51.882282144663854;-39.032603748316;0.003023295027682976;-8250.0;8250.003023295028
0.46000000000000035;-3519310344.0;-3517426758.0;-1883586.0;-3.395069991903735e-06;-91.68066839040816;10.686449733699348;0.002482158331413172;-1833.3333333333333;1833.3358154916646
0.46400000000000036;-3519310344.0;-3518481445.0;-828899.0;1.8418049494505973e-06;-236.94783189671486;201.30516543871812;0.001309218735338583;-10750.0;10750.001309218735
0.46800000000000036;-3519310344.0;-3518767090.0;-543254.0;3.1887390842706376e-06;-66.46068298561872;43.10075960874358;0.00033673353370501007;-1416.6666666666667;1416.6670034002004
