Zeit[sec];Sollposition[°];Istposition[°];Positionsschleppfehler[°];Sollgeschwindigkeit[°/s];Istgeschwindigkeit[°/s];Geschwindigkeitsdifferenz[°/s];Sollbeschleunigung[°/s*s];Istbeschleunigung[°/s*s];Beschleunigungsdifferenz[°/s*s]
0.0;0.0;54932.0;-54932.0;9.235410456707406e-20;-1.1877927998815305;-4.085679200118469;-9.290495195447952e-18;0.0;-9.290495195447952e-18
0.004;0.0;60425.0;-60425.0;4.2809518867912945e-20;0.053174327513463196;-5.8539743275134635;-1.2386146424790279e-17;0.0;-1.2386146424790279e-17
0.008;0.0;54932.0;-54932.0;6.960910647802067e-21;1.0487509656450982;-6.322222965645098;-8.96215205502772e-18;-83.33333333333333;83.33333333333333
0.012;0.0;54932.0;-54932.0;-9.777535211085278e-21;-0.25550690999601045;-5.017965090003989;-4.184611464721836e-18;0.0;-4.184611464721836e-18
0.016;0.0;54932.0;-54932.0;-1.2524133655409527e-20;-0.8434326912557445;-4.430039308744256;-6.866496110810624e-19;0.0;-6.866496110810624e-19
0.02;0.0;54932.0;-54932.0;-8.692100823189247e-21;-0.5794275073688645;-4.694044492631136;9.5800820805507e-19;83.33333333333333;-83.33333333333333
0.024;0.0;65918.0;-65918.0;-3.762705247779985e-21;4.962002129737173;-11.290130129737173;1.2323488938523154e-18;0.0;1.2323488938523154e-18
0.028;0.0;54932.0;-54932.0;-3.303468368714858e-22;-1.5038193418228314;-3.7696526581771685;8.580896027271248e-19;0.0;8.580896027271248e-19
0.032;0.0;54932.0;-54932.0;1.1631219663312576e-21;0.6809674458757939;-5.954439445875794;3.733672008006859e-19;0.0;3.733672008006859e-19
0.036000000000000004;-6019.0;60425.0;-60425.0;-1.504994928688261;1.7134647579481654;-7.514264757948166;-376.2487321720652;0.0;-376.2487321720652
0.04000000000000001;-343892.0;54932.0;-57318.0;-84.4680096767172;-1.0193883547199016;-5.079846618959234;-20740.753687007236;0.0;-20740.753687007236
0.04400000000000001;-1402095.0;49438.0;-189383.0;-264.55074581901664;-2.1429961892616984;-50.42748746025432;-45020.68403557486;0.0;-45020.68403557486
0.048000000000000015;-3699468.0;0.0;-761473.0;-574.3433083075554;-15.363502212914133;-213.1197951369333;-77448.14062213468;-416.6666666666667;-77031.47395546803
0.05200000000000002;-8126748.0;-368042.0;-1938725.0;-1106.819879672188;-105.54583029652741;-466.8952537583222;-133119.14284115817;-3583.3333333333335;-129535.80950782484
0.05600000000000002;-15827631.0;-2438965.0;-3002389.0;-1925.2207448528166;-569.4437564818335;-502.4323456295398;-204600.21629515712;-22416.666666666668;-182183.54962849044
0.060000000000000026;-27916165.0;-6965332.0;-4188755.0;-3022.133280329621;-1161.1783954901075;-669.1251398023414;-274228.13386920106;-69333.33333333333;-204894.80053586775
0.06400000000000003;-45515466.0;-14787598.0;-5787825.0;-4399.825003568142;-2038.876902370136;-872.0884059714483;-344422.9308096303;-122500.0;-221922.9308096303
0.06800000000000003;-69797770.0;-27965698.0;-6857484.0;-6070.575819696315;-3381.558418560625;-838.6993457123335;-417687.7040320432;-195416.66666666666;-222271.0373653766
0.07200000000000004;-101865398.0;-47526855.0;-7513044.0;-8016.906730210604;-4967.986201118085;-807.445207122526;-486582.7276285722;-272583.3333333333;-213999.39429523892
0.07600000000000004;-142548237.0;-74399414.0;-7970390.0;-10170.7090602091;-6819.140578784811;-778.4929199466897;-538450.5824996238;-357416.6666666667;-181033.9158329571
0.08000000000000004;-192361096.0;-109583130.0;-8224482.0;-12453.21433759543;-8935.621715168716;-713.3799750460894;-570626.3193465825;-428500.0;-142126.3193465825
0.08400000000000005;-251523084.0;-153967896.0;-8091985.0;-14790.496163660342;-11212.622136957702;-627.275226062784;-584320.4565162282;-488916.6666666667;-95403.78984956152
0.08800000000000005;-319844707.0;-206548462.0;-8977566.0;-17080.405078054122;-13203.12120816151;-1025.2611350804436;-572477.228598445;-533333.3333333334;-39143.89526511161
0.09200000000000005;-396707776.0;-268588257.0;-9676631.0;-19215.766205093125;-15643.995601409224;-969.6752322818575;-533840.2817597507;-545583.3333333334;11743.051573582648
0.09600000000000006;-481245369.0;-341378174.0;-8541217.0;-21134.397329691838;-18280.900034440394;-452.6817624218129;-479657.78114967817;-577583.3333333334;97925.5521836552
0.10000000000000006;-572520537.0;-420770874.0;-9004367.0;-22818.79096654122;-19890.03218458763;-938.3486331938147;-421098.4092123454;-577916.6666666666;156818.25745432125
0.10400000000000006;-669567957.0;-508634033.0;-8305176.0;-24261.853663495363;-22147.371672937425;-440.9163318689207;-360765.6742385361;-543416.6666666666;182650.9924281305
0.10800000000000007;-771383944.0;-602457275.0;-8006232.0;-25453.995736033703;-23383.968944727836;-765.7026113351385;-298035.5181345849;-501666.6666666667;203631.1485320818
0.11200000000000007;-876979202.0;-701405640.0;-7962128.0;-26398.813065399245;-24890.883851368253;-599.544359178708;-236204.33234138545;-404166.6666666667;167962.33432528123
0.11600000000000008;-985432211.0;-805209961.0;-7444275.0;-27113.251162330314;-25914.917371929892;-621.3488649701976;-178609.5242327674;-388000.0;209390.4757672326
0.12000000000000008;-1095931742.0;-911749878.0;-7610525.0;-27624.88144572791;-26616.6811773105;-790.469791387397;-127907.57084939923;-282500.0;154592.42915060077
0.12400000000000008;-1207845872.0;-1021442871.0;-7165211.0;-27978.531097353673;-27533.684784608377;-466.0938861416944;-88412.4129064403;-248166.66666666666;159754.25376022636
0.12800000000000009;-1320722091.0;-1132800293.0;-6856195.0;-28219.053298599807;-27812.967939493323;-607.3269536366133;-60130.550311533625;-188916.66666666666;128786.11635513304
0.1320000000000001;-1434223386.0;-1245580444.0;-6363338.0;-28375.32252277064;-28202.15410624584;-480.54856781502167;-39067.30604270797;-140083.33333333334;101016.02729062538
0.1360000000000001;-1548103849.0;-1359371338.0;-5690859.0;-28470.11440399607;-28494.318630406848;-331.6061280971371;-23697.970306358002;-111916.66666666667;88218.69636030868
0.1400000000000001;-1662201105.0;-1473156738.0;-5553426.0;-28524.312643399957;-28463.538465162852;-481.5808134051658;-13549.559850971491;-61583.333333333336;48033.773482361845
0.1440000000000001;-1776410620.0;-1587782593.0;-4891767.0;-28552.377221889907;-28646.272322018034;-314.3850478751119;-7016.144622487445;-46416.666666666664;39400.52204417922
0.1480000000000001;-1890665671.0;-1702551270.0;-4263585.0;-28563.76150587217;-28739.137425394274;-205.2889770589063;-2846.0709955661514;-28416.666666666668;25570.595671100516
0.1520000000000001;-2004928224.0;-1816918945.0;-4122821.0;-28565.636884886564;-28667.01627072919;-285.50101699066727;-468.844753598205;-13083.333333333334;12614.488579735129
0.1560000000000001;-2119181549.0;-1932055664.0;-3243861.0;-28563.329778833577;-28680.383697727753;-195.46531783188038;576.7765132468412;-17333.333333333332;17910.109846580173
0.16000000000000011;-2233422367.0;-2046324463.0;-3233912.0;-28560.203340817774;-28626.191350889327;-248.97536594681515;781.6095039506763;4083.3333333333335;-3301.723829382657
0.16400000000000012;-2347653767.0;-2160763550.0;-3043245.0;-28557.84849603084;-28677.66892759475;-176.58630561567406;588.7111967331293;5000.0;-4411.288803266871
0.16800000000000012;-2461880200.0;-2275296021.0;-2747931.0;-28556.607021648186;-28520.89587108709;-302.1935055399008;310.36859566393105;3666.6666666666665;-3356.2980710027355
0.17200000000000013;-2576104897.0;-2389356079.0;-2917359.0;-28556.172742833653;-28623.83081479549;-213.60571795929718;108.5697036332931;12833.333333333334;-12724.76362970004
0.17600000000000013;-2690329149.0;-2503564453.0;-2934759.0;-28556.061821000614;-28615.493821521308;-222.68515362648031;27.730458259611623;1000.0;-972.2695417403884
0.18000000000000013;-2804547057.0;-2617959595.0;-2764148.0;-28554.475669676485;-28516.246940638288;-305.24257602409125;396.5378310322194;6166.666666666667;-5770.128835634448
0.18400000000000014;-2918735820.0;-2732371216.0;-2574266.0;-28547.189305854925;-28687.661800210204;-114.90132250659735;1821.5909553900929;-4416.666666666667;6238.25762205676
0.18800000000000014;-3032857686.0;-2846354370.0;-2797502.0;-28530.46501864322;-28526.680761241954;-293.47546488410444;4181.0718029264535;-2833.3333333333335;7014.4051362597875
0.19200000000000014;-3146825549.0;-2961018677.0;-2295605.0;-28491.96446902936;-28571.030141400086;-189.94901943037257;9625.137403464578;1416.6666666666667;8208.470736797912
0.19600000000000015;-3260207312.0;-3075408325.0;-1967155.0;-28345.43954834739;-28640.822173360022;-63.32285280277938;36631.23017049293;-4583.333333333333;41214.56350382626
0.20000000000000015;-3372856387.0;-3188924561.0;-2187305.0;-28162.267267698575;-28413.09002421533;-230.98647237342811;45793.07016220355;7000.0;38793.07016220355
0.20400000000000015;-3484427453.0;-3303083496.0;-1123068.0;-27892.765205311436;-28485.28244893921;103.7947753450535;67375.51559678468;12583.333333333334;54792.182263451345
0.20800000000000016;-3594427658.0;-3415638428.0;-794090.0;-27500.049900316688;-28134.828644377732;2.108818364027684;98178.82624868708;18250.0;79928.82624868708
0.21200000000000016;-3702244580.0;-3526419067.0;-968012.0;-26954.229321142513;-27742.006696710385;-89.56129199407587;136455.1447935437;52416.666666666664;84038.47812687703
0.21600000000000016;-3807235717.0;-3636886597.0;355747.0;-26247.783067405016;-27470.931685776693;219.14176241586392;176611.56343437414;61916.666666666664;114694.89676770748
0.22000000000000017;-3908738721.0;-3743728638.0;488452.0;-25375.74969949391;-26698.551680179782;68.11048496541116;218008.34197777658;101083.33333333333;116925.00864444325
0.22400000000000017;-4005968506.0;-3847456055.0;591165.0;-24307.44502813002;-25952.522658610455;103.09970254287327;267076.16784097266;133333.33333333334;133742.8345076393
0.22800000000000017;-4098370368.0;-3948200684.0;1506617.0;-23100.464438732797;-25099.943961522236;287.2860334484685;301745.1473493056;177750.0;123995.14734930563
0.23200000000000018;-4185276545.0;-4043842163.0;1807468.0;-21726.54315303688;-23881.431844962106;219.7930917726262;343480.3214239791;216500.0;126980.32142397916
0.23600000000000018;-4266116467.0;-4133891602.0;1605710.0;-20209.97971698008;-22446.582711272174;37.932602906788816;379140.85901420005;255916.66666666666;123224.19234753338
0.24000000000000019;-4340365340.0;-4219530029.0;2710934.0;-18562.21723083606;-21351.48912963288;478.4390266554219;411940.621536005;307000.0;104940.62153600498
0.2440000000000002;-4407658664.0;-4298280029.0;3198715.0;-16823.330227726186;-19550.094524233817;291.61741283783704;434721.7507774685;326333.3333333333;108388.41744413521
0.2480000000000002;-4467754832.0;-4369806519.0;3195480.0;-15024.041186804381;-17836.04033352082;260.37585099115313;449822.2602304513;376416.6666666667;73405.59356378464
0.25200000000000017;-4520531495.0;-4434384155.0;3292596.0;-13194.16512303117;-16054.862825411417;250.8230134855985;457469.01594330254;408833.3333333333;48635.682609969255
0.25600000000000017;-4566197472.0;-4491936035.0;3608207.0;-11416.4939028529;-14358.447706134086;395.7689495780887;444417.80504456756;450583.3333333333;-6165.528288765756
0.2600000000000002;-4605202640.0;-4542313843.0;3985740.0;-9751.29137192758;-12458.935834267426;341.4986838629993;416300.6327313301;431083.3333333333;-14782.700602003217
0.2640000000000002;-4637960065.0;-4585034180.0;3639343.0;-8189.356001245013;-10620.341135991368;203.03490355507893;390483.8426706417;453333.3333333333;-62849.490662691605
0.2680000000000002;-4664853511.0;-4621788940.0;3827039.0;-6723.361185832638;-9152.839282499224;378.4695777274392;366498.70385309396;444083.3333333333;-77584.62948023935
0.2720000000000002;-4686361355.0;-4652655029.0;4224071.0;-5376.960659502018;-7625.342905741643;413.5897935760486;336600.13158265495;422583.3333333333;-85983.20175067834
0.2760000000000002;-4703068871.0;-4677445679.0;4222223.0;-4176.878786944082;-6154.93508694347;362.1442669211792;300020.4681394839;388583.3333333333;-88562.8651938494
0.2800000000000002;-4715640804.0;-4697528687.0;4669086.0;-3142.9830367530217;-4969.457401701134;508.6536438050589;258473.9375477651;358166.6666666667;-99692.72911890158
0.2840000000000002;-4724862771.0;-4712876587.0;4921037.0;-2305.4917953617646;-3809.4814817562924;507.9140274199108;209372.81034781426;338500.0;-129127.18965218574
0.2880000000000002;-4731519226.0;-4724351807.0;5128301.0;-1664.1136665421702;-2833.1659120263866;508.49397977306626;160344.5322048986;298000.0;-137655.4677951014
0.2920000000000002;-4736030190.0;-4732613525.0;5165609.0;-1127.7408319990707;-2046.790374025259;486.5862739647348;134093.20863577488;261750.0;-127656.79136422511
0.2960000000000002;-4738544312.0;-4738535156.0;5266406.0;-628.5305338935143;-1486.8033357119077;537.1700182670075;124802.5745263891;221666.66666666666;-96864.09214027756
0.3000000000000002;-4739750058.0;-4742880249.0;5879680.0;-301.43640023983824;-1062.7816337094755;694.2763551708902;81773.53341341902;170750.0;-88976.46658658098
0.3040000000000002;-4740238585.0;-4745253296.0;6245656.0;-122.13183252915879;-574.4937343529612;672.3088292668183;44826.141927669865;133166.66666666666;-88340.5247389968
0.3080000000000002;-4740336151.0;-4746099243.0;6162557.0;-24.391398146913026;-214.04510773388296;573.3890717680432;24435.10859556144;113416.66666666667;-88981.55807110523
0.3120000000000002;-4740242777.0;-4746236572.0;5962166.0;23.34328221489147;-37.20282950894535;525.1408753166668;11933.670090451124;97833.33333333333;-85899.6632428822
0.3160000000000002;-4740114395.0;-4746165161.0;5866604.0;32.09572192168767;15.559343102607876;541.5965998018625;2188.10992669905;69583.33333333333;-67395.22340663428
0.32000000000000023;-4739978541.0;-4746027832.0;5835410.0;33.96328411065679;36.970677114713936;549.762475294286;466.8905472422793;33583.333333333336;-33116.44278609106
0.32400000000000023;-4739995646.0;-4745742188.0;5680906.0;-4.276236039960668;73.44806883838028;504.70380448415864;-9559.880037654364;13333.333333333334;-22893.213370987698
0.32800000000000024;-4740004779.0;-4745544434.0;5558315.0;-2.2832058793383943;47.96122177587077;504.4279873403714;498.25754015556834;5416.666666666667;-4918.409126511098
0.33200000000000024;-4740006855.0;-4745368652.0;5369485.0;-0.518907622036053;46.357369267269966;465.8512196987615;441.0745643255853;1416.6666666666667;-975.5921023410814
0.33600000000000024;-4739938034.0;-4745028076.0;5022527.0;17.205294026833016;85.55639515967295;395.0108297417231;4431.050412217267;833.3333333333334;3597.717078883934
0.34000000000000025;-4739561425.0;-4744588623.0;4609067.0;94.15220908575911;107.86132501079514;341.10723069520844;19236.728764731524;2916.6666666666665;16320.062098064856
0.34400000000000025;-4738283809.0;-4744176636.0;4387519.0;319.4040486529048;103.3328997463584;365.47861506179544;56312.95989178642;5250.0;51062.95989178642
0.34800000000000025;-4735564386.0;-4743468018.0;4410942.0;679.8555494971687;200.06502060035245;406.3955944833293;90112.87521106597;5250.0;84862.87521106597
0.35200000000000026;-4730794624.0;-4741484985.0;4271900.0;1192.4404554474006;523.9118250495568;347.18817663602556;128146.22648755799;18583.333333333332;109562.89315422464
0.35600000000000026;-4723444107.0;-4737947388.0;4258205.0;1837.6291980350784;907.7654244565927;381.9976905979588;161297.18564691945;49083.333333333336;112213.8523135861
0.36000000000000026;-4713105446.0;-4732415771.0;4507565.0;2584.6650552707692;1435.5973415726312;442.3731820533653;186758.9643089227;82750.0;104008.96430892272
0.36400000000000027;-4699176966.0;-4723648682.0;4260624.0;3482.1199211313187;2213.8077230641916;325.24902114100723;224363.71646513738;122833.33333333333;101530.38313180405
0.36800000000000027;-4680758211.0;-4712371216.0;4727617.0;4604.688510608245;2857.8819402013496;532.0840154248535;280642.1473692317;151833.33333333334;128808.81403589834
0.3720000000000003;-4656955648.0;-4697506714.0;5550885.0;5950.640607890798;3784.042938634798;670.7843234852044;336488.02432063804;177583.33333333334;158904.6909873047
0.3760000000000003;-4627140592.0;-4677440186.0;6011398.0;7453.763448189603;5069.119035302453;639.7351090478169;375780.71007470135;214416.66666666666;161364.0434080347
0.3800000000000003;-4590830092.0;-4652105713.0;6831801.0;9077.62454139412;6422.105525501333;772.4662602035633;405965.2733011292;263333.3333333333;142631.93996779586
0.3840000000000003;-4547544370.0;-4620531006.0;7612263.0;10821.43012507956;8002.539478076414;817.0294083468625;435951.39592136;322000.0;113951.39592136002
0.3880000000000003;-4496923587.0;-4581864624.0;7983889.0;12655.19516314562;9773.281713556498;752.6730277136485;458441.25951651495;369166.6666666667;89274.59284984827
0.3920000000000003;-4438731338.0;-4535760498.0;8032851.0;14548.06150025668;11607.064040673118;702.361354579034;473216.5842777649;412833.3333333333;60383.25094443161
0.3960000000000003;-4372738567.0;-4482658081.0;8510206.0;16498.192040452333;13373.745676795905;838.1764719578732;487532.63504891354;442333.3333333333;45199.30171558025
0.4000000000000003;-4298747964.0;-4422156372.0;9249167.0;18497.649695992877;15204.476086553044;993.6107204075597;499864.41388513596;453166.6666666667;46697.74721846926
0.4040000000000003;-4216667803.0;-4352832642.0;9043518.0;20520.039370140275;17457.636200775985;690.0607404383227;505597.41853684955;464916.6666666667;40680.75187018286
0.4080000000000003;-4126545860.0;-4275637207.0;8999207.0;22530.48469442593;19371.293239774026;780.4106619792292;502611.3310714136;497416.6666666667;5194.664404746902
0.4120000000000003;-4028574077.0;-4190548096.0;9131298.0;24492.944679952227;21454.41419234979;727.490004164647;490614.9963815742;501666.6666666667;-11051.670285092485
0.4160000000000003;-3923035824.0;-4096246948.0;8017312.0;26384.5619774799;23601.526000905513;464.9254132723763;472904.32438191876;526416.6666666666;-53512.34228474789
0.4200000000000003;-3810264588.0;-3995809937.0;8506076.0;28192.807561058125;25249.705947719216;798.3199412047397;452061.39589455596;496416.6666666667;-44355.270772110714
0.4240000000000003;-3690657526.0;-3887204590.0;8262412.0;29901.764098887;27210.54289633258;673.0680580960834;427239.1344572188;493000.0;-65760.86554278118
0.4280000000000003;-3564647259.0;-3771754761.0;8251736.0;31502.56525448456;28983.81843246964;668.135160425456;400200.2888993902;457166.6666666667;-56966.37776727647
0.43200000000000033;-3432675550.0;-3649119873.0;7722627.0;32992.92572749102;30715.552660661655;552.2628586879255;372590.1182516145;456833.3333333333;-84243.21508171881
0.43600000000000033;-3295231354.0;-3520211792.0;7150913.0;34361.04721498033;32162.145378040663;608.4324708374807;342030.37187232805;446500.0;-104469.62812767197
0.44000000000000034;-3152850247.0;-3385892944.0;6938599.0;35595.27527131542;33715.89843536843;476.83900811732747;308557.01408377173;401083.3333333333;-92526.3192495616
0.44400000000000034;-3006056107.0;-3244954834.0;5370028.0;36698.53323451706;35250.64077802441;107.26492763862188;275814.49080041057;388500.0;-112685.50919958943
0.44800000000000034;-2855334435.0;-3101989746.0;6506818.0;37680.416164294176;35779.83798347648;870.2845548250989;245470.73244427884;335916.6666666667;-90445.93422238785
0.45200000000000035;-2701173667.0;-2952839355.0;5681915.0;38540.190206239844;37393.05573338818;233.77817873660388;214943.51048641693;299500.0;-84556.48951358307
0.45600000000000035;-2544079809.0;-2799387817.0;4292583.0;39273.46246788293;38145.41647477704;282.22141088759236;183318.06541077094;296250.0;-112931.93458922906
0.46000000000000035;-2384528352.0;-2645310059.0;5518367.0;39887.86242227832;38680.07365490992;675.5730391652978;153599.98859884765;226916.66666666666;-73316.67806781903
0.46400000000000036;-2222970528.0;-2484981079.0;3240459.0;40389.4541776892;40123.95767661792;-300.1076799746079;125397.93885272047;240916.66666666666;-115518.72781394619
0.46800000000000036;-2059832067.0;-2325162964.0;3754894.0;40784.61323528634;39944.00209649472;499.60344370010716;98789.76439928556;176166.66666666666;-77376.9022673811
0.47200000000000036;-1895443948.0;-2163455200.0;4219896.0;41097.027724266176;40593.09004975781;355.2095217165406;78103.62224495839;148083.33333333334;-69979.71108837496
