Zeit[sec];Sollposition[°];Istposition[°];Positionsschleppfehler[°];Sollgeschwindigkeit[°/s];Istgeschwindigkeit[°/s];Geschwindigkeitsdifferenz[°/s];Sollbeschleunigung[°/s*s];Istbeschleunigung[°/s*s];Beschleunigungsdifferenz[°/s*s]
0.0;-9979199182.0;-9981232910.0;2032062.0;0.15205453455131424;2.4052650917321445;120.12084145562227;-69.93344553588527;0.0;-69.93344553588527
0.004;-9979199256.0;-9981210938.0;2011380.0;-0.018556496264947157;5.185682467900216;115.8196508780039;-42.65275770406535;333.3333333333333;-375.98609103739864
0.008;-9979199574.0;-9981166992.0;1967777.0;-0.07941674556315628;12.026123407281936;106.12654558453087;-15.215062324552282;750.0;-765.2150623245523
0.012;-9979199865.0;-9981051636.0;1852254.0;-0.07283346203754837;30.817851258568467;80.27570178122471;1.6458208814019784;1583.3333333333333;-1581.6875124519313
0.016;-9979200033.0;-9980853882.0;1654194.0;-0.0419142945625527;50.852813259102405;48.32237676745454;7.729791868748918;3000.0;-2992.270208131251
0.02;-9979200086.0;-9980634155.0;1434225.0;-0.013326122983367546;57.06998051191121;28.922906418956316;7.147042894796288;3666.6666666666665;-3659.51962377187
0.024;-9979200073.0;-9980381470.0;1181417.0;0.003207492994216888;64.20429926221819;6.649960039619245;4.133403994396109;3500.0;-3495.8665960056037
0.028;-9979200039.0;-9980216675.0;1016595.0;0.008507963006642834;40.156713299945;20.832048388708458;1.3251175031064866;1250.0;-1248.6748824968936
0.032;-9979200010.0;-9980156250.0;956191.0;0.007279417790629049;15.353148175477981;42.02352399440451;-0.30713630400344627;-2166.6666666666665;2166.359530362663
0.036000000000000004;-9979199994.0;-9980112305.0;912278.0;0.0039387956572625085;12.352016568437218;42.392653238133505;-0.8351555333416352;-4166.666666666667;4165.831511133325
0.04000000000000001;-9979199990.0;-9980123291.0;923288.0;0.0010662057393792464;-1.267820654347539;56.671062766194574;-0.7181474794708155;-4083.3333333333335;4082.615185853863
0.04400000000000001;-9979199992.0;-9980156250.0;956258.0;-0.0004958148575083414;-6.89689635977149;64.27519579238776;-0.39050514922189694;-2666.6666666666665;2666.2761615174445
0.048000000000000015;-9979199996.0;-9980167236.0;967245.0;-0.0009243814501322269;-4.667939907580614;62.70310362823004;-0.10714164815597138;-1166.6666666666667;1166.5595250185108
0.05200000000000002;-9979262590.0;-9980161743.0;961749.0;-15.648621105381158;-1.292675112619996;58.99695853032946;-3911.9241809827568;-416.6666666666667;-3495.25751431609
0.05600000000000002;-9979420381.0;-9980183716.0;958902.0;-39.44765524306868;-4.931652301251888;56.260783175190234;-5949.7585344218805;333.3333333333333;-6283.091867755214
0.060000000000000026;-9979736401.0;-9980227661.0;902876.0;-79.00498087986024;-11.822179798714817;41.00185924067361;-9889.33140919789;-250.0;-9639.33140919789
0.06400000000000003;-9980225203.0;-9980310059.0;765306.0;-122.20064876289464;-21.181735255010427;12.108025945835015;-10798.9169707586;-1333.3333333333333;-9465.583637425267
0.06800000000000003;-9980834865.0;-9980458374.0;530022.0;-152.41533263669615;-40.128785244502126;-23.9695018137203;-7553.670968450377;-2083.3333333333335;-5470.337635117043
0.07200000000000004;-9981491408.0;-9980881348.0;417288.0;-164.13568586670038;-111.7900097489208;2.90009055095382;-2930.088307501059;-5000.0;2069.911692498941
0.07600000000000004;-9982166289.0;-9981535034.0;443432.0;-168.72042230980196;-160.9075582375601;30.62824783887524;-1146.184110775394;-10333.333333333334;9187.14922255794
0.08000000000000004;-9982868020.0;-9982194214.0;439073.0;-175.43261738529623;-163.62118622186034;24.080777936672263;-1678.0487688735661;-11583.333333333334;9905.284564459767
0.08400000000000005;-9983588824.0;-9982765503.0;324943.0;-180.20115250035443;-141.88058413250744;-9.977674956494582;-1192.1337787645498;-7250.0;6057.86622123545
0.08800000000000005;-9984284719.0;-9983391724.0;242028.0;-173.97360756739332;-160.99084018586575;-1.7714175962376828;1556.8862332402773;-416.6666666666667;1973.552899906944
0.09200000000000005;-9984917919.0;-9984028931.0;168419.0;-158.30000106001654;-160.73552120764555;-6.86342639676019;3918.4016268441937;500.0;3418.4016268441937
0.09600000000000006;-9985473755.0;-9984671631.0;139936.0;-138.95893846560173;-159.16467627363653;-0.2349207348507889;4835.265648603702;-666.6666666666666;5501.932315270368
0.10000000000000006;-9985936345.0;-9985171509.0;36920.0;-115.64763974226508;-123.84208725136519;-24.666122232166927;5827.824680834162;166.66666666666666;5661.158014167496
0.10400000000000006;-9986302862.0;-9985545044.0;-108864.0;-91.62924926454227;-96.4687271796316;-39.892812119914964;6004.597619430704;4500.0;1504.5976194307045
0.10800000000000007;-9986599775.0;-9985907593.0;-171360.0;-74.22823688379644;-92.91069898267835;-23.632213863474192;4350.253095186456;5916.666666666667;-1566.4135714802105
0.11200000000000007;-9986866715.0;-9986132813.0;-285623.0;-66.7350434545449;-57.440288972228764;-44.56784353095194;1873.298357312887;5666.666666666667;-3793.36830935378
0.11600000000000008;-9987138952.0;-9986259155.0;-444718.0;-68.0591881791141;-20.958788227826357;-77.08355359934737;-331.03618114230215;5000.0;-5331.036181142302
0.12000000000000008;-9987437775.0;-9986638184.0;-334905.0;-74.70572423752353;-71.06376944665611;-16.334482131718886;-1661.634014602356;1833.3333333333333;-3494.9673479356893
0.12400000000000008;-9987768593.0;-9986918335.0;-337501.0;-82.70443788202623;-62.93249455139041;-28.004242662277825;-1999.6784111256752;0.0;-1999.6784111256752
0.12800000000000009;-9988127735.0;-9987110596.0;-456592.0;-89.78557080215356;-52.40240648500622;-52.83125818545897;-1770.2832300318328;-583.3333333333334;-1186.9498966984993
0.1320000000000001;-9988507528.0;-9987407227.0;-501822.0;-94.94812744486079;-77.51962528769673;-38.054823691643705;-1290.6391606768075;750.0;-2040.6391606768075
0.1360000000000001;-9988897030.0;-9987725830.0;-550383.0;-97.37546462790819;-76.27833781357855;-48.53559501923097;-606.8342957618497;-500.0;-106.83429576184977
0.1400000000000001;-9989286685.0;-9987989502.0;-670232.0;-97.4139164929271;-68.085476793617;-68.00872256185355;-9.612966254728406;-1416.6666666666667;1407.0537004119383
0.1440000000000001;-9989669034.0;-9988319092.0;-730148.0;-95.58717984449947;-89.27623673980683;-51.90913077294756;456.6841621069067;-750.0;1206.6841621069066
0.1480000000000001;-9990034601.0;-9988698120.0;-737877.0;-91.39185679438314;-89.0619668514207;-51.90007179921206;1048.8307625290822;-1166.6666666666667;2215.497429195749
0.1520000000000001;-9990374682.0;-9989033203.0;-778532.0;-85.0200865863081;-84.12942884103954;-56.516994501119896;1592.9425520187622;-1416.6666666666667;3009.609218685429
0.1560000000000001;-9990679307.0;-9989357300.0;-809996.0;-76.15637588502713;-75.12987573885172;-62.360015697829965;2215.927675320241;-1333.3333333333333;3549.2610086535747
0.16000000000000011;-9990930908.0;-9989670410.0;-823058.0;-62.90027477169267;-79.14449847123026;-51.78207990854179;3314.025278333615;1750.0;1564.0252783336148
0.16400000000000012;-9991112504.0;-9989978027.0;-799251.0;-45.398833504271636;-72.83905098984391;-46.068483735248705;4375.360316855259;416.6666666666667;3958.6936501885925
0.16800000000000012;-9991168340.0;-9990269165.0;-732269.0;-13.95910813088671;-72.91388094445318;-27.06115829219877;7859.931343346231;1250.0;6609.931343346231
0.17200000000000013;-9990962297.0;-9990368042.0;-765536.0;51.51085404950439;-28.680282950006426;-50.28789819685862;16367.490545097775;2083.3333333333335;14284.157211764441
0.17600000000000013;-9990365628.0;-9990390015.0;-696304.0;149.1671945648524;-7.309553797654807;-22.654194437708753;24414.085128837003;5750.0;18664.085128837003
0.18000000000000013;-9989317492.0;-9990258179.0;-468754.0;262.0340547799008;36.60761139728129;25.113602726488082;28216.71505376211;6666.666666666667;21550.04838709544
0.18400000000000014;-9987784424.0;-9989769287.0;-184267.0;383.2669611640355;128.72479922612757;53.564116749115215;30308.226596033663;10250.0;20058.226596033663
0.18800000000000014;-9985767803.0;-9988632202.0;-83593.0;504.1551713665112;291.2115329085812;13.212565729424114;30222.052550618926;17750.0;12472.052550618926
0.19200000000000014;-9983328766.0;-9986962280.0;-31567.0;609.7593202824194;420.23540002769977;8.357478542394574;26401.037228977046;28916.666666666668;-2515.629437689622
0.19600000000000015;-9980566419.0;-9985017700.0;205122.0;690.5866330770573;489.11216277575494;68.51239421445024;20206.82819865948;31750.0;-11543.17180134052
0.20000000000000015;-9977578000.0;-9982545776.0;297947.0;747.104584660022;628.1504780342877;30.913654534404486;14129.487895741193;28833.333333333332;-14703.84543759214
0.20400000000000015;-9974497803.0;-9979749756.0;352014.0;770.0492425798222;681.4591351885423;52.183225062308;5736.164479950048;26750.0;-21013.83552004995
0.20800000000000016;-9971543554.0;-9977008667.0;634408.0;738.5623843589191;688.6317230383008;105.30338010404637;-7871.714555225793;19083.333333333332;-26955.047888559126
0.21200000000000016;-9968897086.0;-9973932495.0;587958.0;661.6168100779721;780.2992190968395;12.40901482554068;-19236.39357023674;14333.333333333334;-33569.726903570074
0.21600000000000016;-9966635432.0;-9970729980.0;218400.0;565.4134412432383;759.6813656723127;-38.33820593119094;-24050.84220868346;11500.0;-35550.84220868346
0.22000000000000017;-9964796973.0;-9968510742.0;494861.0;459.6148841451361;555.7367662536725;97.87942423333027;-26449.639274525536;-1416.6666666666667;-25032.972607858872
0.22400000000000017;-9963373114.0;-9966621094.0;701331.0;355.96477038991543;472.7302516108826;93.37926645972328;-25912.52843880517;-17833.333333333332;-8079.195105471836
0.22800000000000017;-9962327408.0;-9964846802.0;603596.0;261.4265225778061;420.7208719429746;34.63403505175705;-23634.56195302733;-29333.333333333332;5698.771380306002
0.23200000000000018;-9961664804.0;-9963814087.0;847237.0;165.65097125060723;256.41710568442943;113.50627149348179;-23943.887831799722;-26666.666666666668;2722.778834866947
0.23600000000000018;-9961386532.0;-9963094482.0;1023660.0;69.5679996176535;176.25466928192228;109.1718787335279;-24020.742908238433;-24333.333333333332;312.59042509489984
0.24000000000000019;-9961507304.0;-9962655029.0;1096674.0;-30.193188636382544;97.561046046108;96.35615311953109;-24940.29706350901;-26416.666666666668;1476.3696031576571
0.2440000000000002;-9962126448.0;-9962622070.0;1186023.0;-154.78592575553225;10.616732749886811;91.12188065564841;-31148.184279787427;-24500.0;-6648.184279787426
0.2480000000000002;-9963310554.0;-9962726440.0;974363.0;-296.02653072504796;-32.55392744077742;12.007983510569602;-35310.15124237893;-18500.0;-16810.151242378928
0.25200000000000017;-9964988835.0;-9963286743.0;694443.0;-419.57012737375265;-152.41427339571715;-15.97472977670975;-30885.899162176174;-18666.666666666668;-12219.232495509505
0.25600000000000017;-9967009094.0;-9964533691.0;564663.0;-505.06474134850396;-322.7731382643506;12.470863506528872;-21373.653493687827;-23166.666666666668;1793.0131729788422
0.2600000000000002;-9969215675.0;-9966253052.0;473050.0;-551.6451696589947;-428.80404207119346;4.443524371374508;-11645.107077622697;-31000.0;19354.8929223773
0.2640000000000002;-9971456590.0;-9968186646.0;314515.0;-560.2287911422676;-488.19635191415995;-15.964956436460398;-2145.9053708182128;-31666.666666666668;29520.761295848457
0.2680000000000002;-9973574831.0;-9970263062.0;171828.0;-529.5603388239041;-515.1115355730653;-29.354293687849804;7667.113079590877;-23500.0;31167.113079590876
0.2720000000000002;-9975476665.0;-9972339478.0;56169.0;-475.4582574741348;-519.763911633268;-24.88488270225423;13525.520337442316;-11333.333333333334;24858.85367077565
0.2760000000000002;-9977099501.0;-9974393921.0;77454.0;-405.7090977460719;-505.14949101536723;1.5073241388653855;17437.28993201573;-5333.333333333333;22770.623265349062
0.2800000000000002;-9978322075.0;-9976151733.0;42782.0;-305.6434784470218;-430.7794313873425;-14.7744584681692;25016.404824762532;2333.3333333333335;22683.071491429197
0.2840000000000002;-9979065190.0;-9977519531.0;-55193.0;-185.77865871715537;-343.8273646118641;-25.927545090232968;29966.204932466604;11166.666666666666;18799.538265799936
0.2880000000000002;-9979389966.0;-9978656616.0;47071.0;-81.19406019924281;-279.94168598549066;24.060673685428583;26146.14962947814;17333.333333333332;8812.816296144807
0.2920000000000002;-9979443310.0;-9979332275.0;142671.0;-13.33598509301172;-164.70052911596747;28.245956648754657;16964.518776557772;20916.666666666668;-3952.147890108895
0.2960000000000002;-9979373576.0;-9979436646.0;27433.0;17.43352852600453;-21.856998116850853;-31.399215967127162;7692.378404754062;24000.0;-16307.621595245937
0.3000000000000002;-9979282329.0;-9979304810.0;-110538.0;22.81169342931212;24.1349167207405;-32.30115634626331;1344.541225826897;27416.666666666668;-26072.12544083977
0.3040000000000002;-9979199999.0;-9979260864.0;-76942.0;20.58236937363307;11.398399746872485;3.37067701059026;-557.3310139197619;20833.333333333332;-21390.664347253092
0.3080000000000002;-9979199999.0;-9979107056.0;-143164.0;0.0;39.03569271271676;-25.72924412331128;-5145.592343408268;9750.0;-14895.592343408267
0.3120000000000002;-9979199999.0;-9978958740.0;-241741.0;0.0;31.366875123493376;-33.436491161249855;0.0;2166.6666666666665;-2166.6666666666665
0.3160000000000002;-9979199999.0;-9978909302.0;-290697.0;0.0;7.754499393232167;-25.075719572750895;0.0;250.0;-250.0
0.32000000000000023;-9979199999.0;-9978909302.0;-290697.0;0.0;3.9635415097624063;-21.40536150982977;0.0;-1750.0;1750.0
0.32400000000000023;-9979199999.0;-9978887329.0;-312670.0;0.0;5.7076634392365815;-24.467863439250863;0.0;-3250.0;3250.0
0.32800000000000024;-9979003504.0;-9978887329.0;-312670.0;49.12379261819662;-1.048283222220838;-17.71191677779344;12280.948154549154;-1750.0;14030.948154549154
0.33200000000000024;-9978502811.0;-9978876343.0;-245748.0;125.17335632262935;4.818438135936856;-0.08650192213443653;19012.390926108183;0.0;19012.390926108183
0.33600000000000024;-9977499288.0;-9978771973.0;-34164.0;250.88061603689235;32.166158989056946;44.77242264116783;31426.81492856575;666.6666666666666;30760.148261899085
0.34000000000000025;-9975949483.0;-9978283081.0;175218.0;387.45138995946166;134.08283707445116;50.99896063663286;34142.69348064233;5333.333333333333;28809.360147308995
0.34400000000000025;-9974025631.0;-9977107544.0;216850.0;480.9628043562492;304.95182610312105;12.351401900889243;23377.853599196882;17166.666666666668;6211.186932530214
0.34800000000000025;-9971977114.0;-9975311279.0;115493.0;512.1293042507474;448.58106424119325;-17.92449896767431;7791.62497362455;30833.333333333332;-23041.70835970878
0.35200000000000026;-9969916520.0;-9973311768.0;87070.0;515.1484589129033;493.8118066761866;4.184309467977641;754.7886655389675;34583.333333333336;-33828.54466779437
0.35600000000000026;-9967847234.0;-9971312256.0;140133.0;517.3216272282967;491.8921751077399;29.65954058204551;543.292078848367;24833.333333333332;-24290.041254484964
0.36000000000000026;-9965832908.0;-9969488525.0;380372.0;503.58140545210324;456.6818230469003;82.13289278801659;-3435.0554440483734;7750.0;-11185.055444048374
0.36400000000000027;-9964055031.0;-9967653809.0;593100.0;444.46914517387796;459.04752657825503;88.39958399868857;-14778.06506955632;-2416.6666666666665;-12361.398402889654
0.36800000000000027;-9962669667.0;-9965939941.0;800132.0;346.34099029743606;428.10581380435826;100.12693318853098;-24532.038719110475;-4916.666666666667;-19615.372052443807
0.3720000000000003;-9961752182.0;-9964423828.0;907656.0;229.37122170744854;378.7049133302346;81.66367258772834;-29242.44214749688;-5750.0;-23492.44214749688
0.3760000000000003;-9961370492.0;-9963237305.0;923290.0;95.42244254468395;301.1419171614647;54.79475720015;-33487.19479069115;-9833.333333333334;-23653.861457357816
0.3800000000000003;-9961530649.0;-9962671509.0;1065286.0;-40.039183417350884;130.40395282758027;110.46120062944956;-33865.40649050871;-18166.666666666668;-15698.73982384204
0.3840000000000003;-9962145508.0;-9962633057.0;1196829.0;-153.71481764291903;17.97749424304813;96.33112632346632;-28418.908556392038;-28500.0;81.0914436079635
0.3880000000000003;-9963107534.0;-9962863770.0;1090277.0;-240.50628440099055;-62.73931097021699;43.839855228830544;-21697.86668951788;-29833.333333333332;8135.466643815452
0.3920000000000003;-9964316234.0;-9963522949.0;999615.0;-302.1749988612196;-168.52384551028908;41.040535583786934;-15417.17861505726;-28250.0;12832.82138494274
0.3960000000000003;-9965729544.0;-9964539185.0;958057.0;-353.3274339947066;-258.5882934631482;51.623291102912134;-12788.108783371754;-22750.0;9961.891216628246
0.4000000000000003;-9967401768.0;-9965692749.0;823242.0;-418.0562021539832;-281.6849902256876;8.984710214654683;-16182.192039819143;-21583.333333333332;5401.14129351419
0.4040000000000003;-9969372756.0;-9966934204.0;549931.0;-492.74687562770043;-316.52187468693404;-29.17392319630642;-18672.668368429313;-15083.333333333334;-3589.3350350959795
0.4080000000000003;-9971600857.0;-9968450317.0;276881.0;-557.0251218001268;-387.3237423405871;-43.35401467806378;-16069.561543106602;-11000.0;-5069.561543106602
0.4120000000000003;-9974011012.0;-9970312500.0;67886.0;-602.5387192622259;-469.870685096398;-43.8507101261622;-11378.399365524758;-11916.666666666666;538.267301141909
0.4160000000000003;-9976511048.0;-9972350464.0;-192927.0;-625.0091971985164;-506.42914753085375;-79.84039416428624;-5617.619484072634;-16750.0;11132.380515927365
0.4200000000000003;-9978991587.0;-9974525757.0;-462358.0;-620.1345024872235;-549.914095558092;-89.00861586938868;1218.673677823233;-14916.666666666666;16135.3403444899
0.4240000000000003;-9981349869.0;-9976788940.0;-690954.0;-589.5706068514681;-558.7417119938731;-105.66032196212882;7640.973908938832;-11583.333333333334;19224.307242272167
0.4280000000000003;-9983515875.0;-9978942261.0;-969814.0;-541.5013691415098;-546.1365958995968;-120.09720219332246;12017.30942748958;-4333.333333333333;16350.642760822911
0.43200000000000033;-9985421233.0;-9981386719.0;-808119.0;-476.33957587991125;-593.3490129261538;-25.82911758104865;16290.448315399644;-5250.0;21540.448315399644
0.43600000000000033;-9986972518.0;-9983408203.0;-850425.0;-387.8210966527246;-497.6719982967079;-69.30089365926096;22129.61980679667;166.66666666666666;21962.95314013
0.44000000000000034;-9988124756.0;-9985056152.0;-968977.0;-288.0594764178032;-410.5939856697321;-89.16982368025077;24940.40505873035;7750.0;17190.40505873035
0.44400000000000034;-9988909351.0;-9986412964.0;-1007309.0;-196.14891479236937;-334.8869163393751;-74.3374596296826;22977.640406358452;17416.666666666668;5560.973739691785
0.44800000000000034;-9989381882.0;-9987280884.0;-1148200.0;-118.13278298229199;-202.23015507700293;-118.86476050234356;19504.032952519345;23166.666666666668;-3662.6337141473223
0.45200000000000035;-9989609269.0;-9987610474.0;-1481631.0;-56.8465749800599;-96.69345281538368;-157.95968316337627;15321.552000558022;26666.666666666668;-11345.114666108646
0.45600000000000035;-9989660219.0;-9988027954.0;-1441315.0;-12.737509827353847;-98.44456845041364;-82.3252164282849;11027.266288176514;23333.333333333332;-12306.067045156818
0.46000000000000035;-9989582161.0;-9988027954.0;-1600184.0;19.514371152216576;-3.5359402673244476;-132.19221845882547;8062.9702448926055;19250.0;-11187.029755107395
0.46400000000000036;-9989408989.0;-9988038940.0;-1590031.0;43.29316751632476;-3.9334167382568124;-91.67703776998685;5944.699091027045;11416.666666666666;-5471.967575639621
0.46800000000000036;-9989169878.0;-9988022461.0;-1491496.0;59.77754705341242;4.852167680256069;-65.58861117843186;4121.094884271915;7833.333333333333;-3712.2384490614177
0.47200000000000036;-9988885049.0;-9987984009.0;-1331190.0;71.20741682411993;13.518735038347543;-43.70049748891588;2857.467442676878;4750.0;-1892.532557323122
0.47600000000000037;-9988570069.0;-9987879639.0;-1178709.0;78.74501971842028;17.132692895114424;-23.64250923059037;1884.4007235750873;1583.3333333333333;301.06739024175397
