Zeit[sec];Sollposition[°];Istposition[°];Positionsschleppfehler[°];Sollgeschwindigkeit[°/s];Istgeschwindigkeit[°/s];Geschwindigkeitsdifferenz[°/s];Sollbeschleunigung[°/s*s];Istbeschleunigung[°/s*s];Beschleunigungsdifferenz[°/s*s]
0.0;0.0;-126343.0;126343.0;-1.7518616708619515e-23;1.2709257759973764;10.858002224002623;-1.6877011319609565e-21;-166.66666666666666;166.66666666666666
0.004;0.0;-126343.0;126343.0;-1.333423373681549e-23;-1.0889936772078561;13.217921677207856;1.0460957429510062e-21;83.33333333333333;-83.33333333333333
0.008;0.0;-120850.0;120850.0;-6.47184566305689e-24;1.2544233812597296;10.34717661874027;1.71559701843965e-21;-166.66666666666666;166.66666666666666
0.012;0.0;-120850.0;120850.0;-1.1716272321051267e-24;-0.09393230962691473;11.695532309626916;1.3250546077379409e-21;83.33333333333333;-83.33333333333333
0.016;0.0;-126343.0;126343.0;1.3390025509772878e-24;-3.6779594598048053;15.806887459804805;6.276574457706036e-22;-83.33333333333333;83.33333333333333
0.02;0.0;-115356.0;115356.0;1.8411285075937705e-24;2.9949468084262767;8.079229191573724;1.2553148915412067e-22;0.0;1.2553148915412067e-22
0.024;0.0;-126343.0;126343.0;1.2832107780199006e-24;-3.7440392203646886;15.87296722036469;-1.3947943239346747e-22;0.0;-1.3947943239346747e-22
0.028;0.0;-115356.0;115356.0;6.137095025312568e-25;4.832518662631202;6.2416573373688;-1.6737531887216096e-22;-83.33333333333333;83.33333333333333
0.032;0.0;-115356.0;115356.0;5.579177295738698e-26;2.2752526409812575;8.798923359018744;-1.3947943239346747e-22;83.33333333333333;-83.33333333333333
0.036000000000000004;0.0;-126343.0;126343.0;-1.6737531887216098e-25;-3.182897187761833;15.311825187761833;-5.579177295738699e-23;0.0;-5.579177295738699e-23
0.04000000000000001;0.0;-115356.0;115356.0;-1.1158354591477397e-25;2.6942594465794873;8.379916553420514;1.394794323934675e-23;83.33333333333333;-83.33333333333333
0.04400000000000001;0.0;-104370.0;104370.0;-1.6737531887216098e-25;5.834364331363532;4.185155668636468;-1.394794323934675e-23;-83.33333333333333;83.33333333333333
0.048000000000000015;0.0;-104370.0;104370.0;5.05744756453514e-14;1.8996288012204712;8.119891198779529;1.2643618911379695e-11;83.33333333333333;-83.33333333332068
0.05200000000000002;0.0;-115356.0;115356.0;5.040086801404523e-13;-2.5719654325005536;13.646141432500574;1.1335855112377522e-10;0.0;1.1335855112377522e-10
0.05600000000000002;0.0;-104370.0;104370.0;2.4773048650842265e-12;2.0369990426426634;7.982520957357566;4.933240462359435e-10;0.0;4.933240462359435e-10
0.060000000000000026;74039.0;-104370.0;104370.0;18.509897318675957;1.699882111163225;8.319637888838058;4627.47432966837;-83.33333333333333;4710.807663001703
0.06400000000000003;147689.0;-104370.0;133725.0;18.412387996440035;0.3226170500843794;19.853868019626518;-24.377330558980503;0.0;-24.377330558980503
0.06800000000000003;241765.0;-93384.0;196190.0;23.51918338011823;3.121606025535595;34.075413940855384;1276.6988459195484;83.33333333333333;1193.365512586215
0.07200000000000004;340435.0;-54932.0;239489.0;24.667403801805232;9.266582131014761;34.16208578506078;287.05510542175097;500.0;-212.94489457824906
0.07600000000000004;427923.0;-16479.0;296814.0;21.872012352355846;10.49460785753582;41.94404834963598;-698.8478623623466;750.0;-1448.8478623623466
0.08000000000000004;495018.0;43945.0;330599.0;16.773699411137766;16.378925331564837;38.91092558449178;-1274.57823530452;833.3333333333334;-2107.911568637853
0.08400000000000005;536263.0;115356.0;338656.0;10.311370205142378;16.682557646947366;35.69540853212934;-1615.582301498847;916.6666666666666;-2532.248968165514
0.08800000000000005;546620.0;175781.0;335197.0;2.589210665228258;13.279112476169347;33.14115930607504;-1930.53988497853;750.0;-2680.53988497853
0.09200000000000005;524132.0;109863.0;430265.0;-5.621995574582274;-16.213570287859596;64.80653010436022;-2052.801559952633;-916.6666666666666;-1136.1348932859664
0.09600000000000006;469250.0;-38452.0;576094.0;-13.720541653086972;-31.152600629589823;85.83646734938489;-2024.6365196261745;-4000.0;1975.3634803738255
0.10000000000000006;383049.0;32959.0;469544.0;-21.550296804841818;22.595793636290033;13.695600345344452;-1957.4387879387114;-2500.0;542.5612120612886
0.10400000000000006;273580.0;153809.0;281584.0;-27.367272025812696;16.55514232091647;-6.30054313332125;-1454.2438052427196;3083.3333333333335;-4537.577138576053
0.10800000000000007;153076.0;-65918.0;406068.0;-30.12588024979919;-45.45612863301355;60.62789751488692;-689.652055996624;916.6666666666666;-1606.3187226632906
0.11200000000000007;0.0;65918.0;160525.0;-38.269178822784134;37.212902470637076;-50.22943571482154;-2035.8246432462356;-500.0;-1535.8246432462356
0.11600000000000008;-60240.0;-21973.0;115062.0;-15.060224492156694;-40.26705099869093;17.974595823805828;5802.23858265686;-750.0;6552.23858265686
0.12000000000000008;-132957.0;-49438.0;26451.0;-18.179273763482392;17.143690581160104;-43.62387101168579;-779.7623178314245;-2000.0;1220.2376821685755
0.12400000000000008;-182067.0;32959.0;-121677.0;-12.277301805566045;-6.517536635720771;-21.59632412415272;1475.4929894790866;4500.0;-3024.5070105209134
0.12800000000000009;-212454.0;-115356.0;-36646.0;-7.596757200318052;-9.677422312323642;-9.661552108832584;1170.1361513119982;-5250.0;6420.136151311998
0.1320000000000001;-230454.0;76904.0;-270731.0;-4.500152642251931;21.679092276584626;-58.125389146620215;774.1511395165304;6000.0;-5225.848860483469
0.1360000000000001;-241920.0;-131836.0;-87576.0;-2.866484443146157;-31.57821396047044;16.774491016933013;408.41704977644343;-4500.0;4908.4170497764435
0.1400000000000001;-250900.0;93384.0;-328279.0;-2.2450290503045434;37.99764769126068;-73.38300458596521;155.36384821040338;3833.3333333333335;-3677.96948512293
0.1440000000000001;-259428.0;-126343.0;-119070.0;-2.1318694988010805;-51.502234370729155;37.441855006000054;28.289887875865727;-2250.0;2278.2898878758656
0.1480000000000001;-268061.0;82397.0;-336625.0;-2.158251144859936;48.16703052895321;-82.68683492539705;-6.595411514713878;666.6666666666666;-673.2620781813805
0.1520000000000001;-276610.0;-76904.0;-185897.0;-2.1372283953535964;-46.27226880971909;26.283164356221803;5.255687376584883;750.0;-744.7443126234151
0.1560000000000001;-284688.0;38452.0;-309852.0;-2.0195165168580425;48.940058053114804;-80.83561142631856;29.427969623888494;-2583.3333333333335;2612.761302957222
0.16000000000000011;-291988.0;-21973.0;-257790.0;-1.8250215638732012;-33.53320379888085;6.694683143929748;48.6237382462103;3833.3333333333335;-3784.709595087123
0.16400000000000012;-298349.0;-38452.0;-249083.0;-1.5903335787876707;24.24166705275646;-50.09672707777771;58.67199627138264;-5000.0;5058.671996271382
0.16800000000000012;-303721.0;38452.0;-332919.0;-1.3429357646494926;-4.376129019166894;-29.31720604448481;61.849453534544516;5583.333333333333;-5521.483879798789
0.17200000000000013;-308104.0;-115356.0;-185086.0;-1.0957937719758983;-9.721569960397236;-9.540305375588105;61.78549816839857;-6000.0;6061.785498168399
0.17600000000000013;-311511.0;76904.0;-382331.0;-0.8516223168652871;25.051401570708634;-63.0015749934239;61.042863777652805;5500.0;-5438.957136222347
0.18000000000000013;-313946.0;-142822.0;-166607.0;-0.6088200895176549;-32.6912211455679;15.696517442751048;60.700556836908056;-4583.333333333333;4644.033890170241
0.18400000000000014;-315408.0;82397.0;-394854.0;-0.3654311352435291;47.9195052375001;-86.58227495712663;60.847238568531445;3416.6666666666665;-3355.819428098135
0.18800000000000014;-315890.0;-142822.0;-171689.0;-0.12066462941184174;-49.73130618065809;32.73541933925685;61.19162645792184;-1750.0;1811.1916264579218
0.19200000000000014;-315390.0;38452.0;-354043.0;0.1251244992959418;48.30580089639672;-82.56374004370858;61.44728217694588;166.66666666666666;-105.21938448972077
0.19600000000000015;-313906.0;-98877.0;-216811.0;0.3709854786003785;-46.79096862411835;25.9524653650389;61.46524482610918;1750.0;-1688.5347551738907
0.20000000000000015;-311443.0;-16479.0;-298325.0;0.6158520747684684;37.83438636648561;-66.25242200114928;61.21664904202247;-3166.6666666666665;3227.8833157086888
0.20400000000000015;-308007.0;-32959.0;-279978.0;0.8587712785214942;-27.97581598546246;1.5645586517273138;60.729800938256446;4416.666666666667;-4355.93686572841
0.20800000000000016;-303612.0;-87891.0;-222203.0;1.0989327243632823;12.119960939059673;-32.74071796082761;60.04036146044703;-5416.666666666667;5476.707028127114
0.21200000000000016;-298269.0;27466.0;-333750.0;1.3356124128790834;0.9931891733255352;-32.080620988759854;59.16992212895028;5750.0;-5690.83007787105
0.21600000000000016;-291997.0;-137329.0;-164189.0;1.5681135597369895;-14.124321045818892;-0.44645762741317085;58.12528671447653;-5666.666666666667;5724.791953381144
0.22000000000000017;-284814.0;54932.0;-350745.0;1.795736832924118;22.78284654294918;-55.02795785322125;56.905818296782094;5166.666666666667;-5109.760848369885
0.22400000000000017;-276743.0;-170288.0;-118897.0;2.0177778836068754;-42.680555485816896;32.923443805351575;55.51026267068937;-4250.0;4305.510262670689
0.22800000000000017;-267809.0;60425.0;-342080.0;2.2335379953358965;44.09369615991685;-75.05093724990476;53.940027932255276;2833.3333333333335;-2779.393305401078
0.23200000000000018;-258039.0;-148315.0;-124932.0;2.4423358174000107;-52.491194576318854;42.5997449511932;52.19945551602856;-1250.0;1302.1994555160286
0.23600000000000018;-247465.0;27466.0;-291453.0;2.643514779308407;47.49188161899542;-73.15631076908174;50.29474047709903;-333.3333333333333;383.62807381043234
0.24000000000000019;-236119.0;-93384.0;-160519.0;2.8364460292138314;-43.94979095404777;31.060843661684522;48.23281247635614;2166.6666666666665;-2118.4338541903103
0.2440000000000002;-224037.0;-32959.0;-210068.0;3.0205289455407827;34.891341382798394;-52.339039160433195;46.02072908173782;-3583.3333333333335;3629.3540624150714
0.2480000000000002;-211257.0;-27466.0;-203928.0;3.1951912074014532;-22.71702765581809;6.0482412285175755;43.665565465167646;4833.333333333333;-4789.667767868165
0.25200000000000017;-197557.0;-98877.0;-120163.0;3.4249980277874035;9.095094018131793;-17.542040825698948;57.45170509648756;-5666.666666666667;5724.118371763155
0.25600000000000017;-182041.0;27466.0;-233365.0;3.8789962407072167;3.5990824241271993;-22.716839814864876;113.4995532299533;5833.333333333333;-5719.8337801033795
0.2600000000000002;-163465.0;-137329.0;-54156.0;4.643759172063813;-15.40451767309235;13.809196374242184;191.19073283914912;-5666.666666666667;5857.857399505816
0.2640000000000002;-139393.0;65918.0;-240684.0;6.018050105402785;30.410003292591327;-49.336114644800844;343.5727333347429;5000.0;-4656.427266665257
0.2680000000000002;-103898.0;-153809.0;-220.0;8.873842682740845;-37.09397260633072;42.25701562736669;713.9481443345151;-3833.3333333333335;4547.281477667849
0.2720000000000002;-49778.0;76904.0;-202364.0;13.530059193382705;54.698457337120026;-66.98312658249925;1164.054127660465;2416.6666666666665;-1252.6125390062016
0.2760000000000002;0.0;-126343.0;43696.0;12.44454486244161;-49.8562387410165;64.75428135721103;-271.3785827352737;-583.3333333333334;311.95475059805966
0.2800000000000002;122960.0;27466.0;-57824.0;30.74019503891377;45.43970503041898;-37.91842182671004;4573.91254411804;-1000.0;5573.91254411804
0.2840000000000002;235577.0;-21973.0;70433.0;28.15427978093781;-30.779339128525102;57.245751851936774;-646.4788144939906;3083.3333333333335;-3729.812147827324
0.2880000000000002;354856.0;-32959.0;199849.0;29.81972467116152;17.727454767334148;31.065768201465293;416.36122255592767;-4000.0;4416.361222555927
0.2920000000000002;464151.0;137329.0;144880.0;27.323727235255703;19.85851395201183;22.879720552537965;-623.9993589764543;5583.333333333333;-6207.3326923097875
0.2960000000000002;545409.0;-43945.0;441436.0;20.314416104262754;-31.859967136666995;103.05816535829813;-1752.327782748237;-4333.333333333333;2581.005550585096
0.3000000000000002;585576.0;104370.0;391358.0;10.041660244846355;41.31526186032846;20.81437601695098;-2568.1889648541;2250.0;-4818.1889648541
0.3040000000000002;588487.0;181274.0;379584.0;0.7278764776826606;12.691155165270176;40.03140793495245;-2328.4459417909234;-416.6666666666667;-1911.7792751242569
0.3080000000000002;557942.0;60425.0;526070.0;-7.63638303801547;-30.52441281109861;87.43621524899967;-2091.064878924533;666.6666666666666;-2757.7315455911994
0.3120000000000002;500649.0;-32959.0;609317.0;-14.323073328705327;-19.98896873941941;75.94955196244342;-1671.6725726724642;-2000.0;328.3274273275358
0.3160000000000002;422274.0;-38452.0;573856.0;-19.59389833330462;0.41942137572260463;44.43221269863897;-1317.706251149823;-4250.0;2932.293748850177
0.32000000000000023;326731.0;-5493.0;475402.0;-23.885611210726314;7.959427713717051;21.30547102581671;-1072.9282193554236;1000.0;-2072.9282193554236
0.32400000000000023;224483.0;10986.0;373865.0;-25.562152631554152;2.9615838919475617;11.664844417125153;-419.1353552069597;3166.6666666666665;-3585.802021873626
0.32800000000000024;129401.0;16479.0;270271.0;-23.77036367852348;-1.0279865317728727;2.448815598789162;447.9472382576679;1250.0;-802.0527617423321
0.33200000000000024;56046.0;10986.0;176397.0;-18.338893347364657;-1.448621128215888;-6.459179695276332;1357.867582789706;-500.0;1857.867582789706
0.33600000000000024;0.0;5493.0;95380.0;-14.011503984866557;-1.4036478808245045;-11.067241441515096;1081.8473406245248;-666.6666666666666;1748.5140072911915
0.34000000000000025;0.0;-5493.0;39747.0;-1.333423373681549e-23;-1.639137937801057;-11.200126164263526;3502.8759962166396;-500.0;4002.8759962166396
0.34400000000000025;0.0;0.0;328.0;-6.47184566305689e-24;1.0697306954512849;-9.519760077113904;1.71559701843965e-21;83.33333333333333;-83.33333333333333
0.34800000000000025;0.0;5493.0;-5493.0;-1.1716272321051267e-24;1.9396212491366178;-2.5490479052979453;1.3250546077379409e-21;166.66666666666666;-166.66666666666666
0.35200000000000026;0.0;10986.0;-10986.0;1.3390025509772878e-24;3.063814930999648;-4.1184709309996475;6.276574457706036e-22;250.0;-250.0
0.35600000000000026;0.0;10986.0;-10986.0;1.8411285075937705e-24;1.777443532438181;-2.832099532438181;1.2553148915412067e-22;83.33333333333333;-83.33333333333333
0.36000000000000026;0.0;10986.0;-10986.0;1.2832107780199006e-24;2.1357897122061087;-3.1904457122061087;-1.3947943239346747e-22;-83.33333333333333;83.33333333333333
0.36400000000000027;0.0;0.0;0.0;6.137095025312568e-25;-3.6815138402657857;3.6815138402657857;-1.6737531887216096e-22;0.0;-1.6737531887216096e-22
0.36800000000000027;0.0;10986.0;-10986.0;5.579177295738698e-26;1.046640795082573;-2.1012967950825727;-1.3947943239346747e-22;-83.33333333333333;83.33333333333333
0.3720000000000003;0.0;10986.0;-10986.0;5.057447564523981e-14;1.3883471202390745;-2.4430031202390747;1.2643618911296005e-11;0.0;1.2643618911296005e-11
0.3760000000000003;0.0;10986.0;-10986.0;5.040086801403407e-13;-0.04144011956942377;-1.013215880430556;1.1335855112377522e-10;0.0;1.1335855112377522e-10
0.3800000000000003;0.0;5493.0;-5493.0;2.477304865084115e-12;-2.02631636751397;1.4989883675142;4.933240462359435e-10;0.0;4.933240462359435e-10
0.3840000000000003;75288.0;16479.0;-16479.0;18.822107610722156;2.2617606881797596;-3.843744688178476;4705.52690267992;0.0;4705.52690267992
0.3880000000000003;150463.0;21973.0;7877.0;18.793881092593345;2.9082253966791294;5.310638175542272;-7.056629532202763;83.33333333333333;-90.38996286553609
0.3920000000000003;246775.0;21973.0;82680.0;24.07796808445919;-0.3906717403972011;27.02858219093907;1321.0217479664611;83.33333333333333;1237.6884146331279
0.3960000000000003;348487.0;32959.0;155250.0;25.42799310088085;1.926690039862695;33.86641437090088;337.5062541054152;83.33333333333333;254.1729207720819
0.4000000000000003;440065.0;21973.0;264565.0;22.89453928114507;-2.849447481440214;52.829957943551754;-633.3634549339448;-83.33333333333333;-550.0301216006116
0.4040000000000003;512659.0;21973.0;362227.0;18.148418668671987;1.6321678894911302;57.55723205424982;-1186.5301531182713;-250.0;-936.5301531182713
0.4080000000000003;559601.0;10986.0;457325.0;11.735385040717734;0.17379467888204206;64.75702639352703;-1603.2584069885631;-166.66666666666666;-1436.5917403218964
0.4120000000000003;577904.0;71411.0;459434.0;4.575943638410966;18.801283925384464;40.937940413917815;-1789.8603505766919;333.3333333333333;-2123.1936839100254
0.4160000000000003;564430.0;192261.0;374322.0;-3.368516008408995;31.477721315486168;13.391545444402642;-1986.1149117049904;2083.3333333333335;-4069.448245038324
0.4200000000000003;518792.0;236206.0;336248.0;-11.409608466023613;3.9814254344826248;29.76642193811285;-2010.2731144036545;2250.0;-4260.273114403654
0.4240000000000003;443939.0;60425.0;485988.0;-18.713279776451742;-44.89958812404463;85.04430216650417;-1825.9178276070322;-1833.3333333333333;7.4155057263010065
0.4280000000000003;341198.0;54932.0;434448.0;-25.685292142515706;4.193283549529544;23.255440205845147;-1743.0030915159912;-4500.0;2756.996908484009
0.43200000000000033;223180.0;208740.0;194901.0;-29.50449943693117;18.589784276381607;-21.31406706919995;-954.8018236038658;583.3333333333334;-1538.135156937199
0.43600000000000033;106130.0;-32959.0;327966.0;-29.262353281852445;-47.681672313460666;52.007711788780604;60.536538769681236;-250.0;310.5365387696812
0.44000000000000034;0.0;148315.0;29147.0;-26.532687405422067;48.25025836448743;-74.83826046672283;682.4164691075945;1500.0;-817.5835308924055
0.44400000000000034;-72231.0;-21973.0;86709.0;-18.05798172628284;-53.48361402743908;33.626175789434555;2118.6764197848065;-1000.0;3118.6764197848065
0.44800000000000034;-126006.0;60425.0;-88442.0;-13.443726957785923;37.162427022757385;-68.8414521796717;1153.5636921242292;-1333.3333333333333;2486.8970254575624
0.45200000000000035;-160386.0;27466.0;-120595.0;-8.594834596607832;-32.73252364783584;4.877245360942567;1212.2230902945228;4083.3333333333335;-2871.1102430388105
0.45600000000000035;-181537.0;-5493.0;-133829.0;-5.287819452749949;19.058514792908703;-43.454352342464816;826.7537859644707;-5083.333333333333;5910.087119297804
0.46000000000000035;-195531.0;93384.0;-261955.0;-3.4985994770064317;-2.0208141837114595;-30.43893205914712;447.3049939358794;6250.0;-5802.69500606412
0.46400000000000036;-206781.0;-65918.0;-121043.0;-2.812430589273481;-12.636356571520306;-3.5815701592680007;171.54222193323764;-5750.0;5921.542221933238
0.46800000000000036;-217626.0;131836.0;-331745.0;-2.7111218959213574;23.314747168089024;-58.399295113293576;25.327173338030917;5583.333333333333;-5558.006159995302
0.47200000000000036;-228788.0;-87891.0;-123124.0;-2.7905457973962497;-38.82271797689206;24.226530180757806;-19.85597536872308;-4500.0;4480.144024631277
0.47600000000000037;-240114.0;131836.0;-353824.0;-2.8314816496037682;40.27103807023833;-76.98134790772113;-10.233963051879623;3083.3333333333335;-3093.567296385213
0.48000000000000037;-251178.0;-76904.0;-156309.0;-2.766137807406191;-50.41927633844264;32.60730148969151;16.335960549394347;-1750.0;1766.3359605493943
0.4840000000000004;-261615.0;98877.0;-343311.0;-2.6092246014495717;48.37541416322341;-84.13860414188434;39.228301489154795;-166.66666666666666;205.89496815582146
0.4880000000000004;-271215.0;-38452.0;-216799.0;-2.399967981061881;-49.58057566510929;26.06356461802068;52.31415509692272;1916.6666666666667;-1864.352511569744
0.4920000000000004;-279898.0;27466.0;-292826.0;-2.170785073656918;28.87944043413221;-59.51791346854891;57.29572685124074;-3416.6666666666665;3473.9623935179075
0.4960000000000004;-287652.0;27466.0;-302067.0;-1.938556801976477;-27.66493485332712;-3.643823798941707;58.05706792011023;4583.333333333333;-4525.276265413223
0.5000000000000003;-294484.0;-32959.0;-249962.0;-1.7078881291448698;9.664720160961759;-35.7411252220622;57.667168207901796;-5583.333333333333;5641.000501541235
0.5040000000000003;-300394.0;93384.0;-383699.0;-1.4774385689283946;2.5868963050601903;-41.270461294986326;57.61239005411878;6000.0;-5942.387609945881
