Zeit[sec];Sollposition[°];Istposition[°];Positionsschleppfehler[°];Sollgeschwindigkeit[°/s];Istgeschwindigkeit[°/s];Geschwindigkeitsdifferenz[°/s];Sollbeschleunigung[°/s*s];Istbeschleunigung[°/s*s];Beschleunigungsdifferenz[°/s*s]
0.0;9817499999.0;9817487183.0;12816.0;0.0;-2.8006806155070665;3.569640615506418;0.0;-83.33333333333333;83.33333333333333
0.004;9817499999.0;9817498169.0;1830.0;0.0;-3.287808475032449;3.397608475044094;0.0;83.33333333333333;-83.33333333333333
0.008;9817499999.0;9817514648.0;-14649.0;0.0;5.2831399232968685;-6.162079923334911;0.0;83.33333333333333;-83.33333333333333
0.012;9817499999.0;9817509155.0;-9156.0;0.0;7.189285578452051;-7.7386455784281125;0.0;-83.33333333333333;83.33333333333333
0.016;9817499999.0;9817487183.0;12816.0;0.0;-5.2004660504758355;5.969426050475187;0.0;0.0;0.0
0.02;9817499999.0;9817503662.0;-3663.0;0.0;-0.5820731439590454;0.3622931439087093;0.0;83.33333333333333;-83.33333333333333
0.024;9817499999.0;9817514648.0;-14649.0;0.0;5.5498488336279985;-6.428788833666041;0.0;-83.33333333333333;83.33333333333333
0.028;9817499999.0;9817509155.0;-9156.0;0.0;6.351883229471743;-6.901243229447805;0.0;-83.33333333333333;83.33333333333333
0.032;9817499999.0;9817487183.0;12816.0;0.0;-6.305169886894524;7.074129886893876;0.0;0.0;0.0
0.036000000000000004;9817499999.0;9817492676.0;7323.0;0.0;-3.464160236477852;3.9035402364833502;0.0;83.33333333333333;-83.33333333333333
0.04000000000000001;9817499999.0;9817492676.0;7323.0;0.0;-5.317115343242884;5.756495343248382;0.0;0.0;0.0
0.04400000000000001;9817501029.0;9817514648.0;-14649.0;0.25730468340798596;5.831340088292957;-6.710280088330999;64.3261708519965;0.0;64.3261708519965
0.048000000000000015;9817588346.0;9817514648.0;-14241.0;21.82924853708395;6.965607121914625;-7.718049835435739;5392.985963418991;0.0;5392.985963418991
0.05200000000000002;9817833471.0;9817503662.0;31981.0;61.281222826925415;4.008354668393731;6.719241046688068;9862.993572460367;0.0;9862.993572460367
0.05600000000000002;9818389549.0;9817569580.0;115443.0;139.01947845258027;21.66658825559169;22.60493354179954;19434.563906413714;500.0;18934.563906413714
0.060000000000000026;9819391198.0;9817772827.0;279684.0;250.41230877300293;59.57699268727005;49.07610992310548;27848.207580105664;2500.0;25348.207580105664
0.06400000000000003;9820956475.0;9818272705.0;510724.0;391.3192144606949;131.83270346207917;81.54023410795483;35226.726421923;7250.0;27976.726421923
0.06800000000000003;9823269194.0;9819338379.0;667558.0;578.1798723985132;282.00425444879386;63.676228393785664;46715.16448445457;15250.0;31465.164484454577
0.07200000000000004;9826583119.0;9821206055.0;658205.0;828.4811828439938;472.7165456626341;31.35667357202965;62575.32761137014;28416.666666666668;34158.66094470347
0.07600000000000004;9831188651.0;9823864746.0;704816.0;1151.382817385512;677.4814713137299;41.1330330508365;80725.40863537956;39750.0;40975.40863537955
0.08000000000000004;9837356685.0;9827666016.0;723707.0;1542.00850331781;973.0117800883651;25.450666272268222;97656.42148307449;51000.0;46656.4214830745
0.08400000000000005;9845316994.0;9832719727.0;887468.0;1990.0772281401103;1278.9885779461713;78.62729862033393;112017.18120557506;61916.666666666664;50100.51453890841
0.08800000000000005;9855290148.0;9839355469.0;1121213.0;2493.2884050878665;1687.1942461518124;97.45046310580142;125802.79423693907;74250.0;51552.794236939066
0.09200000000000005;9867484822.0;9847968750.0;1255801.0;3048.6681643840216;2175.4516562144236;86.86359822632448;138844.93982403877;92500.0;46344.93982403876
0.09600000000000006;9882061113.0;9858625488.0;1441221.0;3644.0727730118565;2709.0396648170054;87.97289403320838;148851.15215695873;107416.66666666667;41434.48549029206
0.10000000000000006;9899144374.0;9871814575.0;1378065.0;4270.814937032587;3306.907463178456;57.259047052341884;156685.5410051827;128916.66666666667;27768.874338516027
0.10400000000000006;9918819196.0;9887316284.0;1432667.0;4918.705360801765;3928.7859715044647;46.25159781657476;161972.6059422944;138583.33333333334;23389.27260896108
0.10800000000000007;9941099737.0;9905570068.0;1274968.0;5570.134959293839;4585.015456960999;15.503672440847367;162857.3996230184;153000.0;9857.39962301841
0.11200000000000007;9965953394.0;9926180420.0;1357380.0;6213.413814425316;5169.535674500704;85.09791056387257;160819.71378286925;156250.0;4569.713782869258
0.11600000000000008;9993302013.0;9949531860.0;1291414.0;6837.15450265697;5895.579687928237;3.2731558895102353;155935.17205791365;158416.66666666666;-2481.4946087530243
0.12000000000000008;10022995885.0;9975119019.0;1532048.0;7423.467556945697;6407.859942038201;141.0109772809119;146578.26357218163;160416.66666666666;-13838.403094485016
0.12400000000000008;10054839523.0;10003425293.0;1489630.0;7960.909081866081;7131.429437895358;23.912099050474353;134360.38123009598;152750.0;-18389.618769904017
0.12800000000000009;10088616831.0;10034088135.0;1359267.0;8444.326637526357;7665.442445975975;49.23287002428788;120854.3889150692;161750.0;-40895.6110849308
0.1320000000000001;10124085460.0;10066810913.0;1234201.0;8867.156853226214;8196.724021051423;26.75555679946956;105707.55392496403;146583.33333333334;-40875.779408369315
0.1360000000000001;10160974354.0;10100901489.0;1580185.0;9222.223070969521;8541.42709112642;162.5236954626107;88766.55443582695;138333.33333333334;-49566.778897506396
0.1400000000000001;10199011003.0;10137244263.0;1259243.0;9509.161898146878;9076.21014247188;4.801977384884594;71734.70679433922;115916.66666666667;-44181.959872327454
0.1440000000000001;10237950551.0;10174339600.0;1499545.0;9734.886488266118;9298.584167016894;125.29789938972135;56431.147529810005;106083.33333333333;-49652.18580352332
0.1480000000000001;10277559535.0;10213417969.0;809085.0;9902.245544893052;9755.337524730356;-109.81553573838937;41839.76415673351;96250.0;-54410.23584326649
0.1520000000000001;10317623335.0;10252463379.0;963354.0;10015.949454729769;9739.102997954824;118.61737625840578;28425.977459179194;83000.0;-54574.022540820806
0.1560000000000001;10357979463.0;10292525024.0;687098.0;10089.031549696772;10050.975176580652;-63.402547533334655;18270.52374175082;53750.0;-35479.47625824918
0.16000000000000011;10398503468.0;10332767944.0;621216.0;10131.000778892721;10006.165907819905;75.36618180984078;10492.30729898727;48000.0;-37507.692701012726
0.16400000000000012;10439074431.0;10373109741.0;700395.0;10142.740329779925;10115.55675633534;31.710421568221136;2934.8877218008056;18583.333333333332;-15648.445611532527
0.16800000000000012;10479565101.0;10413665771.0;686005.0;10122.666924532523;10097.04786241582;79.52185152071797;-5018.351311850438;26333.333333333332;-31351.68464518377
0.17200000000000013;10519861864.0;10454243774.0;646854.0;10074.190425530298;10217.824390075059;-44.30039825984386;-12119.124750556239;-1916.6666666666667;-10202.458083889573
0.17600000000000013;10559867051.0;10495074463.0;230425.0;10001.296246307787;10136.275236239151;-18.88536850690616;-18223.544805627625;18666.666666666668;-36890.21147229429
0.18000000000000013;10599476276.0;10534614258.0;872924.0;9902.305795051963;9931.46045514799;166.48804927843048;-24747.61281395604;-12833.333333333334;-11914.279480622705
0.18400000000000014;10638571186.0;10574758301.0;578783.0;9773.727043295148;10002.872013525763;-5.669840083686722;-32144.687939203777;-8500.0;-23644.687939203777
0.18800000000000014;10677018340.0;10614105835.0;638877.0;9611.78783437324;9843.88382790009;46.35514329855323;-40484.802230477275;-26416.666666666668;-14068.135563810603
0.19200000000000014;10714666677.0;10653156738.0;429072.0;9412.083953283212;9726.870177053295;9.148211327947138;-49925.970272506675;-16000.0;-33925.970272506675
0.19600000000000015;10751352238.0;10691004639.0;715402.0;9171.389764590005;9465.703878228665;110.77747021779032;-60173.54717330181;-31333.333333333332;-28840.21383996848
0.20000000000000015;10786915821.0;10728759155.0;232178.0;8890.895375755288;9389.030032182045;-57.2767439406598;-70123.59720867926;-39416.666666666664;-30706.930542012593
0.20400000000000015;10821216527.0;10765228271.0;9417.0;8575.175932034284;9071.664586453275;-9.511126799521662;-78929.86093025093;-43166.666666666664;-35763.19426358426
0.20800000000000016;10854107485.0;10800461426.0;-154291.0;8222.739180929491;8792.467737885452;-34.36412663965166;-88109.18777619826;-55083.333333333336;-33025.85444286493
0.21200000000000016;10885494889.0;10834112549.0;-56252.0;7846.850737008693;8389.59138434253;44.323681318490344;-93972.11098019966;-70333.33333333333;-23638.77764686633
0.21600000000000016;10915221360.0;10866489258.0;-129878.0;7431.617433167832;8106.078350378908;-38.10068511852296;-103808.32596021514;-89250.0;-14558.325960215143
0.22000000000000017;10943194713.0;10897459717.0;-362657.0;6993.337754917964;7698.151813503877;-35.49154209673634;-109569.91956246702;-82750.0;-26819.91956246702
0.22400000000000017;10969322147.0;10926342773.0;-204594.0;6531.85834053188;7217.850438229755;30.1533182717576;-115369.85359652112;-96250.0;-19119.853596521127
0.22800000000000017;10993522571.0;10953693237.0;-303311.0;6050.1055891234055;6796.199797761567;-1.4620350419763781;-120438.18785211851;-99083.33333333333;-21354.85451878519
0.23200000000000018;11015722929.0;10979121094.0;-356948.0;5550.08926465798;6349.783546927013;-27.645543998341054;-125004.08111635648;-114083.33333333333;-10920.747783023146
0.23600000000000018;11035864099.0;11002769165.0;-586298.0;5035.2923596543205;5873.869330514059;-54.36751125827686;-128699.22625091477;-110166.66666666667;-18532.55958424809
0.24000000000000019;11053907891.0;11023857422.0;-278914.0;4510.947767248347;5262.503102107637;69.67217656921366;-131086.14810149334;-120833.33333333333;-10252.814768160008
0.2440000000000002;11069825074.0;11043330688.0;-430522.0;3979.2953718228787;4840.99302825889;-36.410038494205764;-132913.09885636714;-126750.0;-6163.098856367128
0.2480000000000002;11083616053.0;11060419922.0;-306842.0;3447.74473599397;4270.770796798557;14.046914328291678;-132887.65895722713;-131583.33333333334;-1304.3256238937884
0.25200000000000017;11095343071.0;11075416260.0;-216543.0;2931.7543519020232;3718.977243129261;39.68917782045219;-128997.59602298672;-130833.33333333333;1835.7373103466016
0.25600000000000017;11105102761.0;11088336182.0;-151356.0;2439.922422010142;3225.61383141093;11.581974147177334;-122957.98247297034;-132666.66666666666;9708.684193696314
0.2600000000000002;11113008929.0;11099564209.0;-420286.0;1976.5418490039337;2772.810482593566;-58.25358486284813;-115845.14325155203;-128083.33333333333;12238.190081781297
0.2640000000000002;11119212217.0;11108644409.0;-464162.0;1550.821813194055;2227.6846187339274;3.5467541147572774;-106430.00895246968;-122916.66666666667;16486.657714196994
0.2680000000000002;11123904606.0;11115725098.0;-302988.0;1173.0973502547174;1790.3834296340422;1.9029175916862187;-94431.11573483441;-123750.0;29318.884265165594
0.2720000000000002;11127304487.0;11121399536.0;-363207.0;849.9702134009428;1380.2304595472067;1.531539371054805;-80781.78421344364;-117500.0;36718.21578655636
0.2760000000000002;11129642201.0;11125404053.0;-178942.0;584.4283367681334;1001.342545571588;35.11665305715076;-66385.46915820237;-112833.33333333333;46447.86417513096
0.2800000000000002;11131154754.0;11128634033.0;-422600.0;378.13821895493214;803.9653286656142;-82.74099719027447;-51572.5294533003;-90750.0;39177.4705466997
0.2840000000000002;11132043288.0;11130737915.0;-509708.0;222.13361420798608;503.684279687278;-30.073321915566567;-39001.15118673651;-78000.0;38998.84881326349
0.2880000000000002;11132495243.0;11132078247.0;-580066.0;112.9888295987737;346.2029847263694;-63.513382822751225;-27286.196152303095;-65083.333333333336;37797.137181030244
0.2920000000000002;11132684758.0;11132940674.0;-723399.0;47.37868500060297;196.78723410607876;-60.417672127458104;-16402.536149542684;-50333.333333333336;33930.79718379065
0.2960000000000002;11132712157.0;11133127441.0;-559706.0;6.849651254240638;48.11756134622544;5.915031300199544;-10132.258436590584;-46416.666666666664;36284.40823007608
0.3000000000000002;11132656200.0;11133198853.0;-504342.0;-13.98925831105899;26.203632086083292;-24.77016125872261;-5209.727391324907;-32000.0;26790.27260867509
0.3040000000000002;11132624745.0;11133286743.0;-596933.0;-7.863575099948825;14.897633868969978;-51.8887898421945;1531.4208027775412;-21583.333333333332;23114.754136110874
0.3080000000000002;11132614564.0;11133204346.0;-560290.0;-2.5454771209474556;-17.0546461493969;-28.00117149647703;1329.5244947503425;-10250.0;11579.524494750342
0.3120000000000002;11132616161.0;11133193359.0;-572467.0;0.3992798842695094;-3.0732877643406393;-37.06565725733165;736.1892513042412;-2666.6666666666665;3402.8559179709077
0.3160000000000002;11132621370.0;11133176880.0;-561623.0;1.302367432307213;-5.672423982799053;-29.434043727598976;225.77188700942588;-2333.3333333333335;2559.1052203427594
0.32000000000000023;11132625710.0;11133209839.0;-591622.0;1.084941265252222;5.895394585430622;-40.652629034658;-54.35654176374777;250.0;-304.35654176374777
0.32400000000000023;11132627856.0;11133171387.0;-548327.0;0.5366208411763105;-4.374792075246573;-27.313958099152465;-137.08010601897786;916.6666666666666;-1053.7467726856444
0.32800000000000024;11132628212.0;11133171387.0;-544852.0;0.08886622721719432;-0.5990789878815412;-31.223226246082422;-111.93865348977904;-166.66666666666666;54.728013176887615
0.33200000000000024;11132627939.0;11133160400.0;-532415.0;-0.06825907705175396;2.5173379012644292;-34.09993195340772;-39.281326067237075;-250.0;210.71867393276293
0.33600000000000024;11132629856.0;11133143921.0;-515820.0;0.47939084092710915;-6.450751287512482;-24.469256651168944;136.91247949471577;166.66666666666666;-29.75418717195088
0.34000000000000025;11132642220.0;11133132935.0;-504234.0;3.0909406277476497;-1.7321953658759595;-28.37204841959436;652.8874467051352;-250.0;902.8874467051352
0.34400000000000025;11132684506.0;11133132935.0;-498188.0;10.571448248380362;-0.3007374888733029;-28.078921871369584;1870.126905158178;250.0;1620.126905158178
0.34800000000000025;11132885057.0;11133127441.0;-468528.0;50.13773496665459;-2.4046725369244815;-19.665464496218135;9891.571679568557;0.0;9891.571679568557
0.35200000000000026;11133170679.0;11133165894.0;-402120.0;71.40561492412205;14.556193985313177;-12.468362375712374;5316.969989366864;500.0;4816.969989366864
0.35600000000000026;11133636318.0;11133281250.0;-284123.0;116.40956486119612;34.07228057797998;7.218622769872162;11250.987484268517;1500.0;9750.987484268517
0.36000000000000026;11134342373.0;11133561401.0;-207777.0;176.5138386979783;78.3855759935826;-1.7278345903855836;15026.068459195543;3916.6666666666665;11109.401792528875
0.36400000000000027;11135363930.0;11134121704.0;-208175.0;255.38913042938162;138.31368740922957;-10.827912120094979;19718.822932850835;9083.333333333334;10635.489599517501
0.36800000000000027;11136777636.0;11134852295.0;-109028.0;353.4266036197007;183.99886993265898;16.893936030868673;24509.368297579767;12000.0;12509.36829757977
0.3720000000000003;11138654118.0;11135950928.0;-32471.0;469.1203494606339;286.45951504632086;5.389521754946031;28923.436460233304;14416.666666666666;14506.769793566638
0.3760000000000003;11141057239.0;11137505493.0;7855.0;600.7802980903483;396.1591426489353;3.035085162543112;32914.9871574286;18750.0;14164.987157428599
0.3800000000000003;11144041808.0;11139526978.0;68945.0;746.142274664329;516.3174989538938;8.462769909671124;36340.49414349516;23750.0;12590.494143495163
0.3840000000000003;11147649978.0;11142158203.0;68290.0;902.0423160147308;667.4384623251707;-5.698456815688132;38975.010337600455;30166.666666666668;8808.343670933784
0.3880000000000003;11151910857.0;11145421143.0;33760.0;1065.2198239601112;821.9405310036913;-12.81245621359028;40794.3769863451;33833.333333333336;6961.043653011764
0.3920000000000003;11156841712.0;11149233398.0;84810.0;1232.7136622290739;956.6584967006594;14.256274761149712;41873.45956724067;36833.333333333336;5040.126233907336
0.3960000000000003;11162449848.0;11153748779.0;92119.0;1402.0338691656352;1136.753570786819;-0.5540352548730425;42330.05173414034;38000.0;4330.051734140341
0.4000000000000003;11168735825.0;11158906860.0;129498.0;1571.4942967184668;1293.5318078492285;13.103141593417376;42365.10688820789;39583.333333333336;2781.7735548745545
0.4040000000000003;11175696761.0;11164630737.0;278542.0;1740.2338987840883;1442.000978412956;42.94171187057759;42184.90051640538;39166.666666666664;3018.2338497387136
0.4080000000000003;11183328720.0;11171217041.0;241854.0;1907.9896029085844;1649.710833283022;2.20438690558899;41938.92603112403;41916.666666666664;22.259364457362153
0.4120000000000003;11191627974.0;11178330688.0;351239.0;2074.8134971946424;1781.1683463802933;45.6636993003458;41705.97357151451;42083.333333333336;-377.3597618188305
0.4160000000000003;11200591350.0;11186279297.0;295229.0;2240.8439089340372;2003.4686566696764;-12.605189878955116;41507.602934848706;42750.0;-1242.3970651512946
0.4200000000000003;11210216074.0;11194876099.0;257085.0;2406.1806973482035;2137.7537885373163;17.335788931165098;41334.197103541555;45666.666666666664;-4332.469563125109
0.4240000000000003;11220499504.0;11204082642.0;272241.0;2570.857430086628;2323.93570914001;-2.1767214309493284;41169.18318460614;40750.0;419.18318460614046
0.4280000000000003;11231438907.0;11213931885.0;305013.0;2734.85059267662;2457.010807272032;31.793651288362526;40998.29064749804;44083.333333333336;-3085.0426858352976
0.43200000000000033;11243031316.0;11224473267.0;303285.0;2898.1021817773794;2653.7497804261893;-0.6394264966247647;40812.89727518981;37083.333333333336;3729.563941856476
0.43600000000000033;11255273512.0;11235585938.0;385080.0;3060.548789687733;2793.8394041265474;27.88179538533359;40611.65197758839;42166.666666666664;-1555.0146890782698
0.44000000000000034;11268162033.0;11247412720.0;404511.0;3222.1300878368806;2953.5958523932172;32.22797891237906;40395.32453728691;39583.333333333336;811.9912039535748
0.44400000000000034;11281693186.0;11259981079.0;330799.0;3382.78813475229;3139.2047893286945;4.304564774160099;40164.51172885229;42916.666666666664;-2752.1549378143745
0.44800000000000034;11295863080.0;11273170166.0;281239.0;3542.473392134417;3305.594783857934;-3.838716119821129;39921.314345531755;41916.666666666664;-1995.3523211349093
0.45200000000000035;11310667636.0;11286985474.0;246569.0;3701.1386980121665;3471.899423815109;-11.945795336500396;39666.32646943742;41500.0;-1833.673530562578
0.45600000000000035;11326102569.0;11301388550.0;261278.0;3858.7331006440727;3607.168305544883;12.9544254196785;39398.600657976545;40666.666666666664;-1268.0660086901198
0.46000000000000035;11342163403.0;11316472778.0;227822.0;4015.2084266663223;3785.7249814909324;-9.362924774618023;39118.83150556241;38666.666666666664;452.1648388957474
0.46400000000000036;11358845466.0;11332238159.0;141841.0;4170.515426143114;3947.6683560555653;-19.308178273536214;38826.749869198014;40583.333333333336;-1756.583464135325
0.46800000000000036;11376143865.0;11348475952.0;207522.0;4324.599668716138;4065.9686726951973;22.351024978270743;38521.06064325585;38916.666666666664;-395.6060234108136
0.47200000000000036;11394053505.0;11365493774.0;112490.0;4477.409812124166;4238.675452378243;-1.228633571256978;38202.53585200703;40500.0;-2297.4641479929687
0.47600000000000037;11412569082.0;11382951050.0;192350.0;4628.893923001884;4378.444187319718;17.38047824041314;37871.02771942955;36500.0;1371.0277194295486
0.48000000000000037;11431685063.0;11401149902.0;139801.0;4778.995031752701;4553.136774275273;-8.173191061327998;37525.2771877042;38250.0;-724.7228122957949
0.4840000000000004;11451395702.0;11419810181.0;229599.0;4927.659654679135;4683.83855453609;17.45645054347642;37166.15573160857;36250.0;916.1557316085691
0.4880000000000004;11471695038.0;11439124146.0;263870.0;5074.833554606854;4825.90124456466;26.989688609479344;36793.47498192965;38166.666666666664;-1373.1916847370157
