Zeit[sec];Sollposition[°];Istposition[°];Positionsschleppfehler[°];Sollgeschwindigkeit[°/s];Istgeschwindigkeit[°/s];Geschwindigkeitsdifferenz[°/s];Sollbeschleunigung[°/s*s];Istbeschleunigung[°/s*s];Beschleunigungsdifferenz[°/s*s]
0.0;-9979199999.0;-9979194946.0;-5053.0;0.0;1.7569912484139205;-2.0601712484665353;0.0;0.0;0.0
0.004;-9979199999.0;-9979194946.0;-5053.0;0.0;0.392426195576787;-0.6956061956294017;0.0;0.0;0.0
0.008;-9979199999.0;-9979200439.0;440.0;0.0;-1.9157793845310807;1.9421793845558355;0.0;0.0;0.0
0.012;-9979199999.0;-9979205933.0;5934.0;0.0;-4.047065130263567;4.40310513028013;0.0;0.0;0.0
0.016;-9979199999.0;-9979205933.0;5934.0;0.0;-2.3148754315003752;2.670915431516938;0.0;-83.33333333333333;83.33333333333333
0.02;-9979199999.0;-9979194946.0;-5053.0;0.0;0.8382071125730872;-1.141387112625702;0.0;83.33333333333333;-83.33333333333333
0.024;-9979199999.0;-9979205933.0;5934.0;0.0;-3.5714693556651476;3.9275093556817104;0.0;0.0;0.0
0.028;-9979199999.0;-9979205933.0;5934.0;0.0;-4.4786849523782735;4.834724952394836;0.0;83.33333333333333;-83.33333333333333
0.032;-9979199999.0;-9979200439.0;440.0;0.0;-1.0150128359124064;1.0414128359371613;0.0;-83.33333333333333;83.33333333333333
0.036000000000000004;-9979199999.0;-9979194946.0;-5053.0;0.0;2.280674012735486;-2.583854012788101;0.0;0.0;0.0
0.04000000000000001;-9979199999.0;-9979194946.0;-5053.0;0.0;0.6251064640209079;-0.9282864640735227;0.0;83.33333333333333;-83.33333333333333
0.04400000000000001;-9979196041.0;-9979194946.0;-5053.0;0.989725018943987;0.7653868574872613;-1.0685668575398761;247.43125473599676;0.0;247.43125473599676
0.048000000000000015;-9978870627.0;-9979205933.0;7504.0;81.35350680189254;-4.85960033275187;5.702250838339087;20090.945445737136;0.0;20090.945445737136
0.05200000000000002;-9977941412.0;-9979194946.0;127904.0;232.3036461882612;0.3665999011993408;40.15454974049536;37737.53484659217;-83.33333333333333;37820.8681799255
0.05600000000000002;-9975965820.0;-9979096069.0;591955.0;493.89794664719705;31.58304202823341;144.66625491056195;65398.57511473396;583.3333333333334;64815.241781400626
0.060000000000000026;-9972403680.0;-9978442383.0;1278819.0;890.5349708309004;191.61325596069545;220.25310947566717;99159.25604592584;6500.0;92659.25604592584
0.06400000000000003;-9966606876.0;-9976003418.0;1438356.0;1449.2008056964728;639.471887343295;96.45502283495262;139666.4587163931;31083.333333333332;108583.12538305976
0.06800000000000003;-9957897765.0;-9971685791.0;1559582.0;2177.277885046777;1095.4488276840896;107.8392924536663;182019.26983757608;70916.66666666667;111102.60317090941
0.07200000000000004;-9945357601.0;-9965302734.0;2114920.0;3135.040761317912;1633.23089051304;228.26286831537095;239440.71906778368;104250.0;135190.71906778368
0.07600000000000004;-9927903562.0;-9955618286.0;2641471.0;4363.50946186067;2487.0410352915155;224.1970485149609;307117.17513568955;134666.66666666666;172450.50846902287
0.08000000000000004;-9904506811.0;-9941797485.0;3286661.0;5849.187509142836;3505.5378797699213;308.15929463667;371419.5118205414;174333.33333333334;197086.17848720806
0.08400000000000005;-9874289345.0;-9922977905.0;4248520.0;7554.36607076772;4785.088254941225;415.18248015502286;426294.6404062211;228416.66666666666;197877.97373955444
0.08800000000000005;-9836427570.0;-9897566528.0;4903381.0;9465.443327238081;6424.291263462119;386.4706171417147;477769.31411759026;295416.6666666667;182352.6474509236
0.09200000000000005;-9790150344.0;-9865057983.0;5603186.0;11569.306117683018;8213.008030304902;425.2701914367208;525965.6976112342;358000.0;167965.69761123418
0.09600000000000006;-9734859496.0;-9824529419.0;6228201.0;13822.711223267563;10237.39499303782;424.69139945592906;563351.2763961361;422583.3333333333;140767.9430628029
0.10000000000000006;-9670093439.0;-9775167847.0;6668305.0;16191.51361043778;12475.080114535102;375.4368970197702;592200.5967925542;475750.0;116450.59679255428
0.10400000000000006;-9595540336.0;-9716412964.0;6908229.0;18638.274867348842;14801.198546137422;361.9960055653228;611690.3142277657;525750.0;85940.31422776562
0.10800000000000007;-9511136228.0;-9647990112.0;7076326.0;21101.025793343866;17226.280039079495;346.03603759161706;615687.731498756;565583.3333333334;50104.39816542259
0.11200000000000007;-9416994134.0;-9569509277.0;6997017.0;23535.522367128047;19730.126347897403;290.0753093855492;608624.1434460453;596166.6666666666;12457.476779378681
0.11600000000000008;-9313391321.0;-9481052856.0;6747943.0;25900.702231767464;22276.477112555614;180.23493207776846;591294.9661598541;610916.6666666666;-19621.700506812544
0.12000000000000008;-9200853032.0;-9382604370.0;6135520.0;28134.570873088935;24644.236626641006;182.90917251915744;558467.1603303677;627833.3333333334;-69366.17300296563
0.12400000000000008;-9080073775.0;-9276828003.0;7449308.0;30194.81267798814;26596.57835798668;622.9178900978222;515060.451224801;594833.3333333334;-79772.88210853237
0.12800000000000009;-8951828728.0;-9160565186.0;6939839.0;32061.260400813797;29205.977911142887;148.7479122402401;466611.93070641457;572833.3333333334;-106221.4026269188
0.1320000000000001;-8816989963.0;-9035057373.0;5123065.0;33709.68960479226;31301.540530708262;-71.39832319108245;412107.3009946149;576750.0;-164642.6990053851
0.1360000000000001;-8676539828.0;-8904666138.0;5547439.0;35112.532083511804;32783.440617404754;253.30632895433519;350710.6196798868;532916.6666666666;-182206.04698677984
0.1400000000000001;-8531484531.0;-8765908813.0;3815064.0;36263.82235895968;34664.686528838894;-179.54672551511612;287822.5688619696;498250.0;-210427.43113803043
0.1440000000000001;-8382754212.0;-8624306030.0;4455412.0;37182.57813617958;35437.58354729659;390.5220813710839;229688.94430497492;393750.0;-164061.05569502508
0.1480000000000001;-8231246852.0;-8476100464.0;2735248.0;37876.83826899438;37177.00448314265;-391.5407755320048;173565.0332037003;350333.3333333333;-176768.30012963302
0.1520000000000001;-8077801278.0;-8325428467.0;1873090.0;38361.39149112858;37544.90958025441;19.933916139547364;121138.30553355001;320250.0;-199111.69446645
0.1560000000000001;-7923080085.0;-8173833618.0;2537801.0;38680.29653346669;38038.88346874589;178.27271121482045;79726.26058452624;212333.33333333334;-132607.07274880708
0.16000000000000011;-7767601345.0;-8019228516.0;1872679.0;38869.68310455936;38666.816655924325;-69.46273743597703;47346.64277316733;183583.33333333334;-136236.69056016603
0.16400000000000012;-7611846093.0;-7863173218.0;831455.0;38938.811112707976;39016.24927369603;-212.84520818880992;17282.002037154598;106000.0;-88717.9979628454
0.16800000000000012;-7456291246.0;-7708348389.0;1590560.0;38888.70996359796;38661.456365556085;329.9588271690445;-12525.287277503594;106333.33333333333;-118858.62061083692
0.17200000000000013;-7301349651.0;-7552567749.0;1484095.0;38735.39690780288;39001.36853746602;6.2189055276539875;-38328.263948769745;31750.0;-70078.26394876975
0.17600000000000013;-7147370585.0;-7396957397.0;1186619.0;38494.76475572037;38837.15841250665;62.25602140559204;-60158.03802062874;14500.0;-74658.03802062874
0.18000000000000013;-6994726669.0;-7241638184.0;430967.0;38160.977112383254;38842.15228226362;-175.40592419776658;-83446.91083427824;-10500.0;-72946.91083427824
0.18400000000000014;-6843851928.0;-7088719482.0;967604.0;37718.68350286833;38153.60555855741;268.28380602780817;-110573.40237873177;-8083.333333333333;-102490.06904539844
0.18800000000000014;-6695250243.0;-6937031250.0;1229661.0;37150.41937258066;37998.87124549283;62.47880852806702;-142066.03257191635;-89250.0;-52816.03257191637
0.19200000000000014;-6549502581.0;-6785952759.0;135046.0;36436.913905477;37680.78690559753;-176.71692714300298;-178376.3667759158;-72750.0;-105626.36677591581
0.19600000000000015;-6407248984.0;-6637730713.0;-603571.0;35563.39751524355;36987.07716238504;-152.43614634966798;-218379.09755836154;-100916.66666666667;-117462.43089169486
0.20000000000000015;-6269127557.0;-6493765869.0;-189373.0;34530.35512828395;35929.79496513825;153.60165640109335;-258260.5967399013;-118666.66666666667;-139593.93007323463
0.20400000000000015;-6135724138.0;-6352701416.0;-618097.0;33350.853040016686;35328.72694206026;-206.88215185983427;-294875.5220668154;-201000.0;-93875.52206681539
0.20800000000000016;-6007601243.0;-6215147095.0;-1897395.0;32030.72239564143;34216.96732224934;-262.0570595070967;-330032.66109381366;-203916.66666666666;-126115.994427147
0.21200000000000016;-5885308525.0;-6084827271.0;-879801.0;30573.177920307946;32597.200326816437;184.36462479523834;-364386.11883337126;-261083.33333333334;-103302.78550003792
0.21600000000000016;-5769342753.0;-5957808838.0;-2055972.0;28991.441666101033;31678.493755749285;-341.288149950793;-395434.06355172826;-281166.6666666667;-114267.39688506161
0.22000000000000017;-5660138994.0;-5838486328.0;-1560138.0;27300.938447841363;29773.168594598275;87.80763520577602;-422625.8045649174;-345333.3333333333;-77292.4712315841
0.22400000000000017;-5558078529.0;-5724530640.0;-2194015.0;25515.114995495584;28438.633189072945;-239.82254903460853;-446455.8630864449;-358416.6666666667;-88039.19641977819
0.22800000000000017;-5463493496.0;-5618128052.0;-2185427.0;23646.257049613978;26429.299202796017;42.367821976105915;-467214.4864704014;-378083.3333333333;-89131.15313706812
0.23200000000000018;-5376681745.0;-5520184937.0;-990114.0;21702.93686609145;24494.923733763735;230.27525638624866;-485830.0458806316;-449333.3333333333;-36496.71254729827
0.23600000000000018;-5297890187.0;-5427421875.0;-2206326.0;19697.888517060313;23043.815272880973;-289.48353212911024;-501262.0872577845;-437166.6666666667;-64095.42059111783
0.24000000000000019;-5227289680.0;-5343975220.0;-1975565.0;17650.12582466802;20733.820669664365;66.9985966169952;-511940.6730980736;-464166.6666666667;-47774.00643140692
0.2440000000000002;-5165010104.0;-5268663940.0;-1695917.0;15569.893367715165;18784.77666621373;11.199249775232602;-520058.1142382134;-473083.3333333333;-46974.78090488011
0.2480000000000002;-5111070652.0;-5200834351.0;-2176124.0;13484.86238031329;16842.183113734493;-135.40578509035913;-521257.74685046874;-496583.3333333333;-24674.413517135406
0.25200000000000017;-5065259590.0;-5141541138.0;-2447735.0;11452.764817265415;14745.041984745927;-136.50606287397386;-508024.3907619688;-516000.0;7975.609238031211
0.25600000000000017;-5027208964.0;-5090734863.0;-2488469.0;9512.656167324592;12617.096279726957;-75.01999319589231;-485027.16248520574;-501250.0;16222.837514794264
0.2600000000000002;-4996457527.0;-5048025513.0;-2416022.0;7687.858911340206;10578.026202614363;-27.53864919439002;-456199.3139960966;-519916.6666666667;63717.35267057005
0.2640000000000002;-4972394198.0;-5012720947.0;-2518505.0;6015.831971553844;8742.19199496578;-92.78190306110082;-418006.73494659056;-511750.0;93743.26505340946
0.2680000000000002;-4954246226.0;-4984392700.0;-2704276.0;4536.992618910318;6996.320959319618;-122.95899276199088;-369709.8381608814;-484583.3333333333;114873.49517245189
0.2720000000000002;-4941138202.0;-4962590332.0;-2749474.0;3277.0059359711454;5391.866294270449;-117.54242632457317;-314996.6707347932;-453166.6666666667;138169.99593187353
0.2760000000000002;-4932152501.0;-4946638184.0;-2517250.0;2246.4252270848287;3962.1310969651754;-67.07343621640484;-257645.17722157916;-419666.6666666667;162021.48944508753
0.2800000000000002;-4926337768.0;-4934893799.0;-2758517.0;1453.6832006770903;2882.1465936608092;-171.87809146916652;-198185.5066019346;-373583.3333333333;175397.8267313987
0.2840000000000002;-4922814662.0;-4927082520.0;-2817180.0;880.7763227931588;1938.2870849844703;-169.1639259350079;-143226.71947098288;-318000.0;174773.28052901712
0.2880000000000002;-4921070015.0;-4922034302.0;-2940679.0;436.1617421536958;1253.453522295408;-198.71471421838328;-111153.64515986574;-257833.33333333334;146679.68817346758
0.2920000000000002;-4920445115.0;-4918787842.0;-3355737.0;156.224920601283;808.4341378060877;-301.9278928960608;-69984.2053881032;-202166.66666666666;132182.46127856345
0.2960000000000002;-4920286353.0;-4916914673.0;-3917801.0;39.69066065868667;447.74058320846035;-355.0323132289748;-29133.564985649085;-147000.0;117866.43501435092
0.3000000000000002;-4920338269.0;-4916568604.0;-3817225.0;-12.979135480915527;80.01233914420008;-197.38467694853148;-13167.449034900548;-109250.0;96082.55096509945
0.3040000000000002;-4920437019.0;-4916738892.0;-3568975.0;-24.687329224318514;-17.29671055547148;-177.35106206025438;-2927.0484358507465;-85333.33333333333;82406.28489748258
0.3080000000000002;-4920514169.0;-4916782837.0;-3594281.0;-19.28769262210046;-21.206458240494133;-211.76304103241847;1349.9091505545132;-54333.333333333336;55683.24248388785
0.3120000000000002;-4920592631.0;-4917095947.0;-3371082.0;-19.615335359912;-80.39350099243224;-144.349273990685;-81.9106844528843;-25916.666666666668;25834.755982213785
0.3160000000000002;-4920572593.0;-4917469482.0;-3075344.0;5.009569256039738;-82.1845007715933;-121.78537557234982;6156.226153987935;-6916.666666666667;13072.8928206546
0.32000000000000023;-4920555900.0;-4917683716.0;-2900510.0;4.173237346362893;-53.031403859727085;-130.84922180242006;-209.08297741921112;-4500.0;4290.917022580789
0.32400000000000023;-4920547643.0;-4917859497.0;-2706594.0;2.0641173927577374;-42.701384931769226;-115.1605648971783;-527.279988401289;-333.3333333333333;-193.94665506795567
0.32800000000000024;-4920546276.0;-4917947388.0;-2605335.0;0.3418248242393696;-19.24664311177656;-133.7315522661626;-430.57314212959193;5250.0;-5680.573142129592
0.33200000000000024;-4920548445.0;-4917985840.0;-2561308.0;-0.5421869809591713;-13.22584656182304;-139.0590200132752;-221.0029512996352;4750.0;-4971.002951299635
0.33600000000000024;-4920552215.0;-4918024292.0;-2522852.0;-0.9426972045684704;-10.921623342745006;-140.44807714308644;-100.12755590232477;3250.0;-3350.1275559023247
0.34000000000000025;-4920559446.0;-4918035278.0;-2514649.0;-1.8077577076655282;-2.8247861839048567;-148.74995708606582;-216.26512577426445;2250.0;-2466.2651257742646
0.34400000000000025;-4920577882.0;-4918079224.0;-2475836.0;-4.6088998488590365;-17.68198312010616;-132.15151031776867;-700.2855352983771;833.3333333333334;-1533.6188686317105
0.34800000000000025;-4920698126.0;-4918134155.0;-2432558.0;-30.06091145314659;-9.968236059963703;-138.89854202495675;-6363.002901071889;-666.6666666666666;-5696.336234405222
0.35200000000000026;-4920851392.0;-4918309937.0;-2315512.0;-38.31668600915882;-42.278892481915655;-111.33563933811945;-2063.943639003058;-1666.6666666666667;-397.27697233639094
0.35600000000000026;-4921094070.0;-4918672485.0;-2085704.0;-60.66949013479497;-91.9608384457566;-66.36646574183732;-5588.201031409037;-5250.0;-338.2010314090369
0.36000000000000026;-4921445147.0;-4919161377.0;-1785335.0;-87.76917756751632;-120.39195663313195;-33.858993270217084;-6774.921858180338;-7583.333333333333;808.4114751529947
0.36400000000000027;-4921923127.0;-4919694214.0;-1537631.0;-119.49493074589071;-138.86091626123712;-24.68006304635398;-7931.438294593598;-8166.666666666667;235.22837207306947
0.36800000000000027;-4922551058.0;-4920375366.0;-1257235.0;-156.98291220535805;-171.4303393635899;-4.1929163931579865;-9371.995364866834;-7250.0;-2121.995364866834
0.3720000000000003;-4923357803.0;-4921122437.0;-1046854.0;-201.68617263553975;-183.38196315127985;-13.601713408500217;-11175.815107545424;-6083.333333333333;-5092.481774212092
0.3760000000000003;-4924373975.0;-4921891479.0;-975762.0;-254.04288466155617;-196.38404513182118;-36.64907520426718;-13089.178006504106;-5166.666666666667;-7922.511339837439
0.3800000000000003;-4925626265.0;-4922858276.0;-897696.0;-313.0725289498587;-244.85713085862994;-31.187486854991107;-14757.411072075627;-5250.0;-9507.411072075627
0.3840000000000003;-4927134126.0;-4923978882.0;-885652.0;-376.965163778826;-279.07273028642686;-51.20682838772933;-15973.158707241837;-6916.666666666667;-9056.492040575169
0.3880000000000003;-4928910320.0;-4925291748.0;-925023.0;-444.0486354598694;-332.1490955769271;-61.41136793821153;-16770.86792026084;-9583.333333333334;-7187.534586927507
0.3920000000000003;-4930962429.0;-4926906738.0;-922786.0;-513.0271119294;-408.54328696556763;-50.01221424832187;-17244.619117382656;-12500.0;-4744.619117382655
0.3960000000000003;-4933293847.0;-4928829346.0;-884196.0;-582.85449650007;-485.0987803337313;-38.95743604070134;-17456.846142667502;-14833.333333333334;-2623.5128093341673
0.4000000000000003;-4935905014.0;-4931010132.0;-864644.0;-652.7916040928435;-547.9080222453662;-44.279025852792415;-17484.276898193373;-17833.333333333332;349.0564351399605
0.4040000000000003;-4938794678.0;-4933454590.0;-860883.0;-722.4161948061421;-618.5847787276767;-43.24252333418599;-17406.147678324658;-17583.333333333332;177.18565500867453
0.4080000000000003;-4941960868.0;-4936283569.0;-751851.0;-791.5473339763178;-709.3607091330178;-15.73722955362382;-17282.784792543905;-18166.666666666668;883.8818741227606
0.4120000000000003;-4945401490.0;-4939343262.0;-689829.0;-860.1553952406797;-765.3891274059675;-25.418267320885548;-17152.015316090485;-18750.0;1597.984683909516
0.4160000000000003;-4949114560.0;-4942567749.0;-738720.0;-928.2674350194892;-810.5136887329259;-52.153804265221424;-17028.009944702375;-17333.333333333332;305.3233886309563
0.4200000000000003;-4953098176.0;-4946193237.0;-660267.0;-995.9039911112752;-904.7725493464097;-21.60222505696254;-16909.139022946503;-16333.333333333334;-575.8056896131709
0.4240000000000003;-4957350456.0;-4949972534.0;-699711.0;-1063.0699000785125;-942.7219607826621;-53.94587792293396;-16791.47724180933;-15750.0;-1041.477241809332
0.4280000000000003;-4961869451.0;-4954026489.0;-734308.0;-1129.748894156372;-1018.6271289643608;-47.569267639236955;-16669.74851946486;-15833.333333333334;-836.4151861315268
0.43200000000000033;-4966653066.0;-4958481445.0;-635806.0;-1195.903644880243;-1105.9282456293256;-21.33364349393014;-16538.68768096777;-17750.0;1211.3123190322312
0.43600000000000033;-4971699055.0;-4962991333.0;-748268.0;-1261.4970793249688;-1127.090666654043;-73.39293526540928;-16398.358611181437;-16083.333333333334;-315.0252778481022
0.44000000000000034;-4977005026.0;-4967852783.0;-772910.0;-1326.4927976656604;-1227.6969151729495;-40.2004760747343;-16248.929585172902;-15583.333333333334;-665.5962518395686
0.44400000000000034;-4982568423.0;-4973005371.0;-767852.0;-1390.849028747354;-1292.237118074391;-40.71653148458131;-16089.05777042338;-15666.666666666666;-422.39110375671453
0.44800000000000034;-4988386550.0;-4978410645.0;-769091.0;-1454.5318146634431;-1354.8698012089171;-42.90386222734992;-15920.696479022297;-16583.333333333332;662.6368543110352
0.45200000000000035;-4994456587.0;-4984129028.0;-713593.0;-1517.5091550082175;-1434.797199449107;-23.739551578973533;-15744.335086193587;-19000.0;3255.664913806413
0.45600000000000035;-5000775555.0;-4990072632.0;-686502.0;-1579.741899942518;-1487.8591447666176;-32.45917999886751;-15558.186233575158;-17000.0;1441.8137664248434
0.46000000000000035;-5007340342.0;-4996362305.0;-564087.0;-1641.1967402499638;-1584.2273199698218;8.567641835402355;-15363.710076861424;-16750.0;1386.2899231385768
0.46400000000000036;-5014147706.0;-5002794800.0;-546565.0;-1701.8408243979059;-1607.9202822335028;-28.61675666915039;-15161.021036985516;-17750.0;2588.9789630144833
0.46800000000000036;-5021194239.0;-5009551392.0;-449498.0;-1761.6332718605856;-1699.7852112669423;7.934246171080758;-14948.111865669944;-14750.0;-198.11186566994365
0.47200000000000036;-5028476396.0;-5016489258.0;-412401.0;-1820.5391017262857;-1728.5903133874237;-21.346005741885165;-14726.457466425018;-16833.333333333332;2106.8758669083145
0.47600000000000037;-5035990492.0;-5023597412.0;-442800.0;-1878.5239272110496;-1784.4632286224478;-26.74293800443934;-14496.206371190965;-12166.666666666666;-2329.539704524299
0.48000000000000037;-5043732673.0;-5031035156.0;-377793.0;-1935.5452540969393;-1860.339596669227;-5.51201100202843;-14255.33172147243;-15083.333333333334;828.0016118609037
