Zeit[sec];Sollposition[°];Istposition[°];Positionsschleppfehler[°];Sollgeschwindigkeit[°/s];Istgeschwindigkeit[°/s];Geschwindigkeitsdifferenz[°/s];Sollbeschleunigung[°/s*s];Istbeschleunigung[°/s*s];Beschleunigungsdifferenz[°/s*s]
0.0;0.0;0.0;0.0;-0.0;-0.007145737323409293;0.007145737323409293;0.0;0.0;0.0
0.004;0.0;0.0;0.0;-0.0;-0.05188774307724467;0.05188774307724467;0.0;0.0;0.0
0.008;0.0;0.0;0.0;-0.0;-0.0057828974464480985;0.0057828974464480985;0.0;0.0;0.0
0.012;0.0;0.0;0.0;-0.0;-0.11215220095115107;0.11215220095115107;0.0;0.0;0.0
0.016;0.0;0.0;0.0;-0.0;-0.012499381126067383;0.012499381126067383;0.0;0.0;0.0
0.02;0.0;0.0;0.0;-0.0;-0.0013930580693885704;0.0013930580693885704;0.0;0.0;0.0
0.024;0.0;0.0;0.0;-0.0;-0.00015525654951359787;0.00015525654951359787;0.0;0.0;0.0
0.028;0.0;0.0;0.0;-0.0;-1.730336781829063e-05;1.730336781829063e-05;0.0;0.0;0.0
0.032;0.0;0.0;0.0;-0.0;-1.9284631713964044e-06;1.9284631713964044e-06;0.0;0.0;0.0
0.036000000000000004;-509.0;0.0;0.0;-0.1272522033471118;-0.7362953850543522;0.7362953850543522;-31.813050836777947;0.0;-31.813050836777947
0.04000000000000001;-5581.0;0.0;-202.0;-1.268153831268081;-0.26558944714790905;0.20644993683645652;-285.22540698024227;0.0;-285.22540698024227
0.04400000000000001;-30514.0;0.0;-2517.0;-6.233233235187979;-0.029599987292350805;-0.657487266558502;-1241.2698509799745;0.0;-1241.2698509799745
0.048000000000000015;-112926.0;0.0;-15437.0;-20.602961206450647;-0.18349940093955538;-3.7103368641409795;-3592.431992815667;0.0;-3592.431992815667
0.05200000000000002;-321991.0;0.0;-63043.0;-52.266287586384976;-0.07905201156945052;-14.533310575092285;-7915.831594983582;0.0;-7915.831594983582
0.05600000000000002;-759248.0;0.0;-195334.0;-109.31420712726005;-0.008810359609609684;-41.463329392178686;-14261.979885218769;0.0;-14261.979885218769
0.060000000000000026;-1549003.0;-10986.0;-483146.0;-197.4388631101306;-0.8627138468548688;-94.61193316073681;-22031.163995717638;-166.66666666666666;-21864.49732905097
0.06400000000000003;-2825936.0;-60425.0;-1009386.0;-319.2332497489353;-12.37092586827694;-174.9526632548817;-30448.596659701176;-416.6666666666667;-30031.929993034508
0.06800000000000003;-4728809.0;-126343.0;-1924317.0;-475.71802438700445;-18.25483716110478;-309.7028728078711;-39121.19365951729;-1083.3333333333333;-38037.86032618395
0.07200000000000004;-7398873.0;-401001.0;-3171912.0;-667.5161537168907;-75.35177871144923;-441.6038161226651;-47949.532332471565;-3000.0;-44949.532332471565
0.07600000000000004;-10975437.0;-1609497.0;-4166801.0;-894.1409615420853;-336.29697496501893;-393.7215508791198;-56656.201956298646;-13083.333333333334;-43572.86862296531
0.08000000000000004;-15586952.0;-4262695.0;-4538585.0;-1152.8784849092988;-676.1004384386081;-275.3042484043077;-64684.38084180337;-40000.0;-24684.380841803373
0.08400000000000005;-21342208.0;-8102417.0;-4680457.0;-1438.81405538853;-966.3371140480454;-230.3210040019867;-71483.89261980781;-65333.333333333336;-6150.559286474483
0.08800000000000005;-28322774.0;-12985840.0;-4855960.0;-1745.1413783825853;-1233.6106951330503;-239.92701555199528;-76581.83074851382;-77583.33333333333;1001.502584819505
0.09200000000000005;-36575803.0;-19121704.0;-4954467.0;-2063.257063518771;-1553.4191263788985;-218.2156034790762;-79528.92128404636;-73500.0;-6028.921284046362
0.09600000000000006;-46110279.0;-26707764.0;-4846305.0;-2383.619047559293;-1911.312443449563;-166.55306187377164;-80090.49601013055;-74750.0;-5340.4960101305505
0.10000000000000006;-56896990.0;-35776978.0;-4530738.0;-2696.677674631678;-2281.4279760868344;-101.80538335540814;-78264.6567680963;-82833.33333333333;4568.676565237027
0.10400000000000006;-68869231.0;-45977783.0;-4353392.0;-2993.0599733194313;-2559.3503633843043;-133.71027326790454;-74095.57467193826;-87083.33333333333;12987.758661395063
0.10800000000000007;-81925921.0;-57409058.0;-4171535.0;-3264.172289172111;-2866.008948544513;-125.7213536504396;-67778.07896316994;-82250.0;14471.921036830054
0.11200000000000007;-95939580.0;-69801636.0;-4174219.0;-3503.414752666498;-3107.549710021819;-170.75686237189075;-59810.615873596704;-74833.33333333333;15022.717459736625
0.11600000000000008;-110766716.0;-83594971.0;-3810643.0;-3706.783756681043;-3461.9203594143937;-59.37692864405062;-50842.25100363631;-70750.0;19907.748996363694
0.12000000000000008;-126257372.0;-98536377.0;-3199819.0;-3872.663892004731;-3739.1325446202386;18.89475381219836;-41470.03383092203;-75166.66666666667;33696.63283574464
0.12400000000000008;-142263485.0;-114235840.0;-2585801.0;-4001.5279258589767;-3921.2973594485206;38.74689324664814;-32216.008463561368;-71250.0;39033.99153643863
0.12800000000000009;-158645942.0;-130078125.0;-2434655.0;-4095.6141678333847;-3961.8997443181966;-65.57493469130122;-23521.56049360201;-56666.666666666664;33145.106173064654
0.1320000000000001;-175279671.0;-146123657.0;-2541430.0;-4158.432048131458;-4010.731041056071;-136.62703694986203;-15704.470074518325;-31583.333333333332;15878.863258815007
0.1360000000000001;-192058939.0;-162927246.0;-2217719.0;-4194.81664877;-4218.437281281796;3.1061750136723276;-9096.1501596355;-20833.333333333332;11737.183173697833
0.1400000000000001;-208904209.0;-180428467.0;-1406458.0;-4211.317379910607;-4369.34881435241;136.38122009452763;-4125.182785151765;-29666.666666666668;25541.483881514905
0.1440000000000001;-225765764.0;-198039551.0;-599958.0;-4215.388528701606;-4381.392279157708;154.44834533374706;-1017.7871977498398;-34750.0;33732.21280225016
0.1480000000000001;-242619993.0;-215079346.0;-411503.0;-4213.556975933409;-4273.776419015114;43.24694719210311;457.8881920492677;-19250.0;19707.888192049268
0.1520000000000001;-259460797.0;-232267456.0;-81948.0;-4210.200830599883;-4302.215744826474;84.05348856689216;839.0363333815003;2666.6666666666665;-1827.6303332851662
0.1560000000000001;-276290766.0;-249510498.0;312145.0;-4207.492212624555;-4308.8537962678665;110.03898276492782;677.1544938321767;7916.666666666667;-7239.51217283449
0.16000000000000011;-293114842.0;-266434937.0;399997.0;-4206.018761608071;-4213.687110559034;21.74041075014884;368.3627541208807;3166.6666666666665;-2798.303912545786
0.16400000000000012;-309937039.0;-282952881.0;90245.0;-4205.549041419713;-4127.8412602189555;-75.20208790868492;117.43004708955596;8666.666666666666;-8549.23661957711
0.16800000000000012;-326759524.0;-299492798.0;-193204.0;-4205.621038534334;-4140.133133067951;-74.01579732686423;-17.99927865522477;15250.0;-15267.999278655225
0.17200000000000013;-343582950.0;-316285400.0;-222924.0;-4205.85633053613;-4189.218169636174;-25.947901781258224;-58.82300044913791;9666.666666666666;-9725.489667115804
0.17600000000000013;-360407157.0;-333050537.0;-280643.0;-4206.051499478273;-4195.49562512782;-22.285930150696004;-48.792235535756845;-2000.0;1951.2077644642432
0.18000000000000013;-377231748.0;-349963989.0;-190921.0;-4206.147656379881;-4218.08509525022;3.9431589421192257;-24.039225401793374;-7583.333333333333;7559.29410793154
0.18400000000000014;-394056403.0;-367058716.0;79451.0;-4206.163520595429;-4278.748352879594;76.07626526030344;-3.966053887097587;-6000.0;5996.033946112902
0.18800000000000014;-410880963.0;-384395142.0;591263.0;-4206.1396972935145;-4334.018737349124;153.28966347500227;5.955825478622501;-9833.333333333334;9839.289158811956
0.19200000000000014;-427705399.0;-401808472.0;1179976.0;-4206.1087240441875;-4341.477804575129;186.0627905010606;7.743312331740526;-11000.0;11007.74331233174
0.19600000000000015;-444529746.0;-418623047.0;1170039.0;-4206.08674621765;-4200.393493191727;44.57761371795459;5.494456634323797;-3500.0;3505.494456634324
0.20000000000000015;-461354055.0;-435064087.0;786678.0;-4206.076848200429;-4114.4348716127015;-57.83816605055017;2.474504305382652;13333.333333333334;-13330.858829027951
0.20400000000000015;-478178358.0;-451713867.0;612126.0;-4206.075605317578;-4166.049848901149;-13.711683683655792;0.3107207126049616;18583.333333333332;-18583.022612620727
0.20800000000000016;-495002672.0;-468627319.0;701271.0;-4206.078294885173;-4223.530946457039;47.60918604404742;-0.6723918986608624;6833.333333333333;-6834.005725231994
0.21200000000000016;-511826999.0;-485381470.0;631114.0;-4206.081505282473;-4171.890296125522;-7.048480846100574;-0.8025993249702879;-5750.0;5749.19740067503
0.21600000000000016;-528651334.0;-501778564.0;203889.0;-4206.0836741346275;-4101.052604464318;-96.25972053403984;-0.5422130386705248;-750.0;749.4577869613295
0.22000000000000017;-545475673.0;-518252563.0;-146442.0;-4206.084584574095;-4127.916396347556;-84.46295603998442;-0.22760986689718266;8333.333333333334;-8333.560943200231
0.22400000000000017;-562300013.0;-535061646.0;-161695.0;-4206.084640424523;-4193.791862863197;-19.245044538332877;-0.013962606999484706;4500.0;-4500.0139626069995
0.22800000000000017;-579124351.0;-551464233.0;-583448.0;-4206.084335377102;-4096.902427573499;-134.27043780981148;0.07626185515619;-1833.3333333333333;1833.4095951884894
0.23200000000000018;-595948688.0;-567883301.0;-988719.0;-4206.084006434706;-4111.151036995951;-137.44839915479042;0.08223559916586964;583.3333333333334;-583.2510977341675
0.23600000000000018;-612773024.0;-584708862.0;-987496.0;-4206.083796810712;-4216.730385637884;-31.816149106086414;0.05240599853095773;1333.3333333333333;-1333.2809273348023
0.24000000000000019;-629597359.0;-601759644.0;-761050.0;-4206.083716752858;-4264.81502526988;26.005950020418823;0.020014463416373474;-6916.666666666667;6916.686681130083
0.2440000000000002;-646421695.0;-618892822.0;-452208.0;-4206.083719640185;-4265.536667402429;40.00795710513921;-0.0007218318387458567;-16250.0;16249.999278168161
0.2480000000000002;-663246031.0;-635657959.0;-511406.0;-4206.083754461791;-4199.35751503229;-28.71666133443614;-0.00870540134201292;-6416.666666666667;6416.657961265325
0.25200000000000017;-680070367.0;-652252808.0;-740893.0;-4206.083788409256;-4144.383795676328;-93.55833675316535;-0.008486866363455192;5583.333333333333;-5583.3418201996965
0.25600000000000017;-696894703.0;-669072876.0;-745161.0;-4206.083808750263;-4219.585574986083;-18.540115731313563;-0.005085251814307412;10500.0;-10500.005085251814
0.2600000000000002;-713719039.0;-686085205.0;-557168.0;-4206.083815726866;-4256.28119027444;26.239169999204023;-0.0017441507225157693;-833.3333333333334;833.3315891826109
0.2640000000000002;-730543375.0;-703146973.0;-319736.0;-4206.083814655257;-4260.169567721881;40.337108324691144;0.00026790235096996184;-7416.666666666667;7416.666934569018
0.2680000000000002;-747367711.0;-720175781.0;-115264.0;-4206.083810796751;-4259.298963955498;48.258796694391094;0.0009646264516049996;-8416.666666666666;8416.667631293118
0.2720000000000002;-764192047.0;-737341919.0;226538.0;-4206.083807335267;-4303.854634781653;107.51195564995578;0.0008653710210637655;-2333.3333333333335;2333.3341987043545
0.2760000000000002;-781016383.0;-754766235.0;826518.0;-4206.083805384015;-4349.796770898956;179.25323545202355;0.0004878129402641207;-5833.333333333333;5833.333821146273
0.2800000000000002;-797840719.0;-771718140.0;954087.0;-4206.083804796333;-4226.81414268501;61.75607710309487;0.00014692045624542516;-3833.3333333333335;3833.3334802537897
0.2840000000000002;-814665055.0;-788098755.0;510366.0;-4206.083804981179;-4108.914340983129;-75.2237261793116;-4.6211425797082484e-05;9500.0;-9500.000046211426
0.2880000000000002;-831489391.0;-804726563.0;313838.0;-4206.083805401521;-4170.92178398993;-21.666986883135905;-0.000105085518953274;18000.0;-18000.00010508552
0.2920000000000002;-848313727.0;-821623535.0;386474.0;-4206.083805751345;-4229.760092378646;40.29466923189193;-8.745587365410756e-05;9500.0;-9500.000087455874
0.2960000000000002;-865138063.0;-838383179.0;321782.0;-4206.083805936408;-4167.103490544071;-25.14368899368128;-4.6265768105513416e-05;-6416.666666666667;6416.666620400899
0.3000000000000002;-881962399.0;-854659424.0;-226309.0;-4206.083805983669;-4074.701080985154;-141.11401183751832;-1.181524567073211e-05;0.0;-1.181524567073211e-05
0.3040000000000002;-898786735.0;-871105957.0;-604112.0;-4206.08380595752;-4128.078157507261;-103.98246444680353;6.537220542668365e-06;9750.0;-9749.99999346278
0.3080000000000002;-915611071.0;-888283081.0;-251324.0;-4206.083805912312;-4299.303044854103;82.41230688108044;1.1302063285256736e-05;2333.3333333333335;-2333.33332203127
0.3120000000000002;-932435407.0;-905723877.0;365136.0;-4206.083805877177;-4347.580304270893;157.19734633114604;8.783672456047498e-06;-19083.333333333332;19083.333342117003
0.3160000000000002;-949259743.0;-922922974.0;739897.0;-4206.083805859827;-4277.149739272147;102.88150437350578;4.337380232755095e-06;-22000.0;22000.00000433738
0.32000000000000023;-966084079.0;-939704590.0;697177.0;-4206.083805856313;-4195.472243237504;19.36704836699937;8.785718819126487e-07;-2916.6666666666665;2916.6666675452384
0.32400000000000023;-982908415.0;-956392822.0;561073.0;-4206.083805859671;-4188.7939009120955;6.836234053556836;-8.394636097364128e-07;14333.333333333334;-14333.333334172798
0.32800000000000024;-999732751.0;-973361206.0;705121.0;-4206.0838058644285;-4228.954412220918;53.19080936325918;-1.189391696243547e-06;10583.333333333334;-10583.333334522726
0.33200000000000024;-1016557087.0;-990104370.0;623949.0;-4206.083805868004;-4186.597615467795;7.343616606251999;-8.938059181673452e-07;1750.0;-1750.000000893806
0.33600000000000024;-1033381423.0;-1006649780.0;345023.0;-4206.083805869653;-4120.030494467968;-71.21732239784887;-4.122284735785797e-07;333.3333333333333;-333.3333337455618
0.34000000000000025;-1050205759.0;-1023200684.0;71591.0;-4206.083805869807;-4152.959437944818;-50.04595492381122;-3.865352482534945e-08;8250.0;-8250.000000038654
0.34400000000000025;-1067030095.0;-1040020752.0;67323.0;-4206.0838058694035;-4192.562774098768;-10.626142770930528;1.0095391189679503e-07;2416.6666666666665;-2416.6666665657126
0.34800000000000025;-1083854431.0;-1056840820.0;63055.0;-4206.083805868812;-4189.342681964602;-14.029758905039671;1.4779288903810084e-07;-3333.3333333333335;3333.3333334811264
0.35200000000000026;-1100678767.0;-1073001709.0;-600392.0;-4206.083805868595;-4048.7823525035283;-183.11830936564547;5.434230843093246e-08;-166.66666666666666;166.66666672100897
0.35600000000000026;-1117503103.0;-1089288940.0;-1137497.0;-4206.0838058684085;-4083.564007672593;-171.43216919613224;4.661160346586257e-08;11833.333333333334;-11833.333333286722
0.36000000000000026;-1134327439.0;-1106224365.0;-1026408.0;-4206.083805868439;-4244.570774140728;-5.648575727792377;-7.73070496506989e-09;5166.666666666667;-5166.666666674398
0.36400000000000027;-1151151775.0;-1123417969.0;-657140.0;-4206.083805868378;-4278.122500688814;43.781674820390435;1.546140993013978e-08;-14500.0;14500.000000015461
0.36800000000000027;-1167976111.0;-1140358887.0;-540558.0;-4206.083805868501;-4232.901416480045;3.5736166116366803;-3.092281986027956e-08;-18083.333333333332;18083.33333330241
0.3720000000000003;-1184800447.0;-1157167969.0;-555812.0;-4206.083805868626;-4206.555286982899;-23.428434885528077;-3.115019353572279e-08;-5750.0;5749.99999996885
0.3760000000000003;-1201624783.0;-1174130859.0;-417258.0;-4206.083805868564;-4233.231363122751;9.205463254201277;1.546140993013978e-08;5833.333333333333;-5833.333333317872
0.3800000000000003;-1218449120.0;-1191110229.0;-262224.0;-4206.083805868501;-4247.942780438236;30.58334256962371;1.5688783605583012e-08;1666.6666666666667;-1666.666666650978
0.3840000000000003;-1235273353.0;-1207749023.0;-447767.0;-4206.058295752233;-4157.116431309268;-68.22135555927616;6.377529067094656;583.3333333333334;-576.9558042662387
0.3880000000000003;-1252096826.0;-1224448242.0;-572843.0;-4205.867845568488;-4188.901561690336;-41.80437881565831;47.612545936317474;5916.666666666667;-5869.0541207303495
0.3920000000000003;-1268917536.0;-1241614380.0;-230638.0;-4205.177309147055;-4300.570232747267;84.66986404376257;172.63410535815638;500.0;-327.3658946418436
0.3960000000000003;-1285730667.0;-1259071655.0;404255.0;-4203.282679827509;-4359.833085124028;171.62087553797392;473.65732988646414;-10666.666666666666;11140.32399655313
0.4000000000000003;-1302524597.0;-1276232300.0;747179.0;-4198.48224142943;-4270.574198149749;98.27273081246221;1200.109599519692;-16000.0;17200.109599519692
0.4040000000000003;-1319274467.0;-1292953491.0;662808.0;-4187.46741929416;-4167.293930850566;-5.595807502621938;2753.705533817538;166.66666666666666;2587.0388671508713
0.4080000000000003;-1335937579.0;-1309334106.0;266849.0;-4165.777796275922;-4109.203689206887;-73.46496792124162;5422.405754559577;18000.0;-12577.594245440423
0.4120000000000003;-1352453585.0;-1326027832.0;244845.0;-4129.001289011726;-4169.606997115011;1.2029694737639147;9194.126816048993;17250.0;-8055.873183951007
0.4160000000000003;-1368748069.0;-1342754517.0;366235.0;-4073.620674871652;-4185.244994735314;49.66952632185075;13845.153535018426;4583.333333333333;9261.820201685092
0.4200000000000003;-1384737301.0;-1359052734.0;235414.0;-3997.307733286146;-4062.0829624697744;-35.05346370476218;19078.235396376615;-1666.6666666666667;20744.90206304328
0.4240000000000003;-1400333090.0;-1374938965.0;-53109.0;-3898.947260235643;-3971.954267427587;-74.01770128109592;24590.118262625652;10250.0;14340.118262625652
0.4280000000000003;-1415446851.0;-1390858154.0;31053.0;-3778.4400721577135;-3984.7214829290883;27.300273182981982;30126.79701948241;17250.0;12876.79701948241
0.43200000000000033;-1429992924.0;-1406722412.0;488333.0;-3636.5179427089806;-3954.695618470393;123.94956348606684;35480.53236218323;13416.666666666666;22063.86569551656
0.43600000000000033;-1443893232.0;-1421998901.0;873317.0;-3475.07677381767;-3808.842757352611;123.51912618289589;40360.29222282764;9583.333333333334;30776.958889494304
0.44000000000000034;-1457083678.0;-1436555786.0;1136838.0;-3297.611565381097;-3624.37760169987;99.92101896079521;44366.302109143246;19916.666666666668;24449.63544247658
0.44400000000000034;-1469518466.0;-1450629272.0;1587681.0;-3108.6966265945834;-3524.058912161791;186.6686592463675;47228.73469662841;34833.333333333336;12395.401363295072
0.44800000000000034;-1481169616.0;-1464164429.0;2227840.0;-2912.787355492149;-3361.9032373308296;233.95077817698166;48977.31777560864;36000.0;12977.31777560864
0.45200000000000035;-1492023221.0;-1476732788.0;2667683.0;-2713.401124291631;-3126.390115084562;208.97189893028008;49846.557800129514;39416.666666666664;10429.891133462854
0.45600000000000035;-1502074724.0;-1487971802.0;2567170.0;-2512.8756706963395;-2789.8690939824664;65.3756678660875;50131.363398822825;48583.333333333336;1548.0300654894918
0.46000000000000035;-1511324524.0;-1498200073.0;2255183.0;-2312.4500630402295;-2539.512825840112;1.4215009903609825;50106.40191402751;66166.66666666667;-16060.264752639156
0.46400000000000036;-1519774723.0;-1507593384.0;1910154.0;-2112.5496311873667;-2338.7190871722896;-13.729293568178036;49975.10796321569;67916.66666666667;-17941.55870345098
0.46800000000000036;-1527427381.0;-1516442871.0;1822173.0;-1913.1643248492855;-2211.70433005237;55.69073500269269;49846.326584520284;59250.0;-9403.673415479716
0.47200000000000036;-1534284231.0;-1524633179.0;1873810.0;-1714.2125515006528;-2039.2674268500507;85.17349263744245;49737.94333715818;44750.0;4987.943337158185
0.47600000000000037;-1540347345.0;-1531988525.0;1887350.0;-1515.7783529191468;-1818.5191979656545;64.22391934831376;49608.549645376515;41250.0;8358.549645376514
0.48000000000000037;-1545620768.0;-1538525391.0;1877407.0;-1318.3557256169263;-1632.2143834708418;76.24065912643778;49355.65682555512;45583.333333333336;3772.32349222178
0.4840000000000004;-1550114755.0;-1544238281.0;1835632.0;-1123.4965713006197;-1420.1579979541004;60.424107649410644;48714.78857907664;50083.333333333336;-1368.5447542566963
0.4880000000000004;-1553852383.0;-1549127197.0;1755532.0;-934.407020797019;-1216.374599272048;49.60858646040356;47272.38762590019;52416.666666666664;-5144.279040766471
