Zeit[sec];Sollposition[°];Istposition[°];Positionsschleppfehler[°];Sollgeschwindigkeit[°/s];Istgeschwindigkeit[°/s];Geschwindigkeitsdifferenz[°/s];Sollbeschleunigung[°/s*s];Istbeschleunigung[°/s*s];Beschleunigungsdifferenz[°/s*s]
0.0;9817499999.0;9817498169.0;1830.0;0.0;-1.99787697211653;2.1076769721281745;0.0;83.33333333333333;-83.33333333333333
0.004;9817499999.0;9817503662.0;-3663.0;0.0;0.5430801439136267;-0.7628601439639628;0.0;-83.33333333333333;83.33333333333333
0.008;9817499999.0;9817503662.0;-3663.0;0.0;1.3325983032733202;-1.5523783033236562;0.0;0.0;0.0
0.012;9817499999.0;9817498169.0;1830.0;0.0;-2.1859773358106613;2.295777335822306;0.0;0.0;0.0
0.016;9817499999.0;9817498169.0;1830.0;0.0;-1.6370732281804086;1.7468732281920532;0.0;0.0;0.0
0.02;9817499999.0;9817503662.0;-3663.0;0.0;1.8009792843386532;-2.020759284388989;0.0;0.0;0.0
0.024;9817499999.0;9817498169.0;1830.0;0.0;-0.6451892831251025;0.7549892831367472;0.0;0.0;0.0
0.028;9817499999.0;9817492676.0;7323.0;0.0;-3.4456295447573067;3.885009544762805;0.0;0.0;0.0
0.032;9817499999.0;9817503662.0;-3663.0;0.0;1.0996705684214831;-1.3194505684718192;0.0;0.0;0.0
0.036000000000000004;9817499598.0;9817503662.0;-3663.0;-0.10028402805486962;1.1706015447005629;-1.390381544750899;-25.071007013717406;0.0;-25.071007013717406
0.04000000000000001;9817495601.0;9817503662.0;-3823.0;-0.9993978115733188;2.412201061137021;-2.6813421113849887;-224.7784458796123;0.0;-224.7784458796123
0.04400000000000001;9817394257.0;9817503662.0;-5647.0;-25.33599830956145;1.9867234779894352;-2.78172447084932;-6084.150124497033;0.0;-6084.150124497033
0.048000000000000015;9817209699.0;9817492676.0;-37233.0;-46.139506606096035;-1.8786546783149243;-10.998536726583392;-5200.877074133646;0.0;-5200.877074133646
0.05200000000000002;9816857757.0;9817437744.0;-116068.0;-87.98549345201742;-15.691176191583276;-24.71457083431156;-10461.496711480348;-416.6666666666667;-10044.83004481368
0.05600000000000002;9816286796.0;9817250977.0;-179737.0;-142.74014691419467;-49.382793879553674;-24.010317111000276;-13688.663365544311;-2416.6666666666665;-11271.996698877645
0.060000000000000026;9815438966.0;9816833496.0;-200055.0;-211.95747565264222;-109.91640689506382;-11.53655978421061;-17304.33218461189;-6083.333333333333;-11220.998851278555
0.06400000000000003;9814214556.0;9816152344.0;-198355.0;-306.1024903510104;-171.7467085466683;-10.017499643934713;-23536.25367459204;-11250.0;-12286.253674592039
0.06800000000000003;9812494598.0;9815158081.0;-199608.0;-429.98950299730234;-257.2996827435717;-3.555729935534714;-30971.75316157299;-14583.333333333334;-16388.419828239657
0.07200000000000004;9810177265.0;9813702393.0;-162600.0;-579.3333242575309;-364.8700184579641;0.4438942727369408;-37335.95531505714;-19833.333333333332;-17502.6219817238
0.07600000000000004;9807189130.0;9811840210.0;-254321.0;-747.0335462282775;-479.28987759011983;-24.445476575018347;-41925.05549268665;-22416.666666666668;-19508.388826019986
0.08000000000000004;9803468343.0;9809379272.0;-373179.0;-930.196675246113;-621.6519065337926;-45.687613966556796;-45790.78225445889;-28250.0;-17540.78225445889
0.08400000000000005;9798969082.0;9806264648.0;-533244.0;-1124.8152161981172;-782.5741464487612;-68.09274002317079;-48654.63523800105;-32333.333333333332;-16321.301904667716
0.08800000000000005;9793684631.0;9802315063.0;-608806.0;-1321.11277650537;-1003.8287331644818;-38.986291195284934;-49074.390076813186;-39000.0;-10074.390076813188
0.09200000000000005;9787638929.0;9797574463.0;-674221.0;-1511.425406934636;-1186.4005655196534;-55.55648317760438;-47578.15760731648;-46250.0;-1328.1576073164842
0.09600000000000006;9780875598.0;9792081299.0;-762732.0;-1690.8327241899103;-1383.4777313959598;-57.70476842235598;-44851.8293138186;-48166.666666666664;3314.837352848066
0.10000000000000006;9773461831.0;9785736694.0;-743897.0;-1853.4416875927498;-1600.0769968710915;-25.999315046921538;-40652.24085070986;-50166.666666666664;9514.425815956805
0.10400000000000006;9765488265.0;9778804321.0;-828538.0;-1993.3913463165043;-1727.6817807669565;-76.28392189769352;-34987.41468093863;-48166.666666666664;13179.251985728037
0.10800000000000007;9757056410.0;9771262207.0;-918331.0;-2107.9637713139714;-1904.5832538343593;-58.493359834021476;-28643.10624936678;-43333.333333333336;14690.227083966554
0.11200000000000007;9748264403.0;9763022461.0;-830576.0;-2198.0016270445963;-2058.8106442125068;-29.02142088978917;-22509.463932656217;-42083.333333333336;19573.86940067712
0.11600000000000008;9739207379.0;9754573975.0;-954054.0;-2264.2556762146596;-2126.1332436261328;-74.10104784085843;-16563.51229251584;-34333.333333333336;17769.821040817496
0.12000000000000008;9729970980.0;9745515747.0;-790797.0;-2309.099699481335;-2258.6486933164447;-12.541883443655479;-11211.00581666883;-32916.666666666664;21705.660849997832
0.12400000000000008;9720618708.0;9736495972.0;-897613.0;-2338.067835651056;-2262.776864515118;-72.72733891759799;-7242.034042430305;-23250.0;16007.965957569695
0.12800000000000009;9711197041.0;9727009277.0;-692208.0;-2355.416786603964;-2362.400865858428;0.5460309617856183;-4337.237738226918;-18833.333333333332;14496.095595106413
0.1320000000000001;9701781158.0;9717665405.0;-727443.0;-2353.9707100347905;-2346.5829264373406;-41.84034201626946;361.51914229333215;-13500.0;13861.519142293331
0.1360000000000001;9692318597.0;9708156738.0;-637743.0;-2365.639951777285;-2369.941177146375;-23.065188683298402;-2917.3104356236763;-8166.666666666667;5249.356231042991
0.1400000000000001;9682866046.0;9698697510.0;-612939.0;-2363.1378258738023;-2370.657928697124;-24.724266461667412;625.53147587073;-4333.333333333333;4958.864809204063
0.1440000000000001;9673362762.0;9689188843.0;-562591.0;-2375.8207560259307;-2369.2217987631634;-29.113184725761585;-3170.732538032098;-2000.0;-1170.732538032098
0.1480000000000001;9663914719.0;9679674683.0;-521155.0;-2362.0106440168706;-2378.708478698298;-20.741891703967212;3452.528002265012;-750.0;4202.528002265012
0.1520000000000001;9654470139.0;9670209961.0;-537518.0;-2361.144818335358;-2370.9491809275746;-31.572847425959935;216.4564203781083;-500.0;716.4564203781083
0.1560000000000001;9645026814.0;9660574951.0;-349502.0;-2360.8313148229636;-2399.576300810501;16.85790452277479;78.37587809865454;-1083.3333333333333;1161.7092114319878
0.16000000000000011;9635583460.0;9651154175.0;-372828.0;-2360.8382168688595;-2382.9581029173582;-0.43716937123235766;-1.7255114739782584;333.3333333333333;-335.0588448073116
0.16400000000000012;9626139628.0;9641672974.0;-334971.0;-2360.957851168915;-2355.2921302266495;-25.64201808431062;-29.908575013905647;-1000.0;970.0914249860944
0.16800000000000012;9616695351.0;9632186279.0;-291820.0;-2361.0693111384476;-2379.4329639305397;1.0381543726243763;-27.86499238311535;2916.6666666666665;-2944.531659049782
0.17200000000000013;9607250827.0;9622705078.0;-254624.0;-2361.1308296266166;-2359.082373331301;-17.196408991702356;-15.37962204224641;-1500.0;1484.6203779577536
0.17600000000000013;9597806239.0;9613152466.0;-146385.0;-2361.146930018642;-2381.8291692767666;11.95302010469868;-4.025098006309236;1000.0;-1004.0250980063092
0.18000000000000013;9588361687.0;9603682251.0;-120717.0;-2361.1379731415586;-2382.992611085229;14.612738364570305;2.2392192707911818;-1166.6666666666667;1168.905885937458
0.18400000000000014;9578917197.0;9594223022.0;-106062.0;-2361.122249162366;-2350.5874265057446;-16.919577912822206;3.930994798110987;333.3333333333333;-329.4023385352223
0.18800000000000014;9569472757.0;9584758301.0;-85868.0;-2361.1098691369766;-2379.6010902741255;13.317218962911284;3.0950063473937917;1916.6666666666667;-1913.571660319273
0.19200000000000014;9560028342.0;9575271606.0;-43644.0;-2361.103635276586;-2359.042610109344;-4.693462699122847;1.5584650976734338;-1166.6666666666667;1168.2251317643402
0.19600000000000015;9550583933.0;9565784912.0;-1380.0;-2361.1022957325386;-2382.95365583802;21.763385790030952;0.3348860118421726;2000.0;-1999.6651139881578
0.20000000000000015;9541139518.0;9556292725.0;46394.0;-2361.1034507118675;-2368.2727358743696;9.95323517957604;-0.2887448322326236;-2750.0;2749.7112551677674
0.20400000000000015;9531695097.0;9546860962.0;33745.0;-2361.1051712855183;-2355.8583131776154;-3.219748335098302;-0.43014341270009027;1666.6666666666667;-1667.0968100793668
0.20800000000000016;9522250671.0;9537434692.0;15598.0;-2361.106466453881;-2358.193271664426;-1.974974460543308;-0.3237920906258296;83.33333333333333;-83.65712542395916
0.21200000000000016;9512806242.0;9528024902.0;-19035.0;-2361.1071055583197;-2340.568620421864;-21.679154296117304;-0.15977610974005074;1750.0;-1750.15977610974
0.21600000000000016;9503361812.0;9518604126.0;-42686.0;-2361.107251484539;-2358.086478428714;-5.581393831199875;-0.036481554843703634;1666.6666666666667;-1666.7031482215104
0.22000000000000017;9493917383.0;9509177856.0;-60845.0;-2361.1071609399987;-2341.237828198053;-23.52003147303776;0.022636135099673993;-916.6666666666666;916.6893028017663
0.22400000000000017;9484472955.0;9499707642.0;-35061.0;-2361.1070282168844;-2381.016119226888;17.805244496897103;0.033180778586938686;1500.0;-1499.966819221413
0.22800000000000017;9475028527.0;9490391235.0;-163083.0;-2361.106947104877;-2322.2246381698624;-48.66745067792044;0.02027800189807749;-1750.0;1750.020278001898
0.23200000000000018;9465584098.0;9480866089.0;-82365.0;-2361.1069348200735;-2370.64169568494;4.592798849977953;0.0030712008083355613;1583.3333333333333;-1583.330262132525
0.23600000000000018;9456139670.0;9471483765.0;-144469.0;-2361.106971350311;-2366.905990035929;-2.869092673558498;-0.009132559398494777;-1000.0;999.9908674406015
0.24000000000000019;9446695242.0;9461986084.0;-91217.0;-2361.107029665729;-2365.798987827547;-0.7809815481828082;-0.014578854461433366;-666.6666666666666;666.6520878122052
0.2440000000000002;9437250813.0;9452554321.0;-103882.0;-2361.107090475748;-2367.589811149679;0.2498968922536733;-0.015202504755507107;-666.6666666666666;666.6514641619111
0.2480000000000002;9427806384.0;9443144531.0;-138520.0;-2361.107145109444;-2346.9315628006384;-22.486690633612852;-0.01365842399536632;-833.3333333333334;833.319674909338
0.25200000000000017;9418361954.0;9433591919.0;-30337.0;-2361.107192510272;-2387.0212115041836;24.09387972322793;-0.011850206988128775;916.6666666666666;-916.6785168736548
0.25600000000000017;9408917525.0;9424160156.0;-43003.0;-2361.1072350734817;-2363.930516076572;0.24317249357682158;-0.010640802429406904;-1583.3333333333333;1583.3226925309039
0.2600000000000002;9399473096.0;9414629517.0;43206.0;-2361.107275641408;-2376.893783607818;18.378934499679872;-0.010141981533706712;-583.3333333333334;583.3231913517997
0.2640000000000002;9390028666.0;9405153809.0;74485.0;-2361.1073161219038;-2379.205521390073;22.567370481360285;-0.010120123988599516;-583.3333333333334;583.3232132093448
0.2680000000000002;9380584236.0;9395612183.0;171682.0;-2361.107357309506;-2364.835143116027;14.0287716623925;-0.01029690054110688;-1583.3333333333333;1583.3230364327922
0.2720000000000002;9371139806.0;9386119995.0;219440.0;-2361.1073992399815;-2389.6189051971214;41.677972982122355;-0.01048261890446156;1250.0;-1250.0104826189045
0.2760000000000002;9361695376.0;9376677246.0;217759.0;-2361.1074416430915;-2350.494776802622;2.4529431096630105;-0.010600777500258118;-1166.6666666666667;1166.6560658891665
0.2800000000000002;9352250945.0;9367124634.0;325941.0;-2361.107484217372;-2382.860271831274;41.30931602480996;-0.010643570135471236;2166.6666666666665;-2166.677310236802
0.2840000000000002;9342806515.0;9357648926.0;357218.0;-2361.107526778027;-2370.8849156193883;31.210537344785735;-0.010640163736752584;-1916.6666666666667;1916.65602650293
0.2880000000000002;9333362084.0;9348244629.0;317085.0;-2361.1075692512513;-2339.678899834223;-2.4035010082520785;-0.01061830607795855;1416.6666666666667;-1416.6772849727447
0.2920000000000002;9323917653.0;9338730469.0;386814.0;-2361.1076116438585;-2385.395924634732;47.497221266085944;-0.0105981517890541;1416.6666666666667;-1416.6772648184558
0.2960000000000002;9314473222.0;9329364624.0;308228.0;-2361.107653982247;-2331.9292929916382;-10.684612818753067;-0.010584597134766227;583.3333333333334;-583.3439179304681
0.3000000000000002;9305028791.0;9319927368.0;301053.0;-2361.1076962996303;-2359.7489739650114;16.704525783071404;-0.010579345826045028;2250.0;-2250.010579345826
0.3040000000000002;9295584359.0;9310517578.0;266412.0;-2361.107738613323;-2344.904396655202;-0.21855385705976005;-0.01057842314367008;-1166.6666666666667;1166.656088243523
0.3080000000000002;9286139928.0;9301014404.0;325155.0;-2361.1077809301382;-2375.8441359461026;34.24572311770817;-0.010579203831184714;1500.0;-1500.0105792038312
0.3120000000000002;9276695496.0;9291599121.0;296006.0;-2361.107823247805;-2362.5606195952073;19.213224451833412;-0.010579416652944929;-2083.3333333333335;2083.3227539166805
0.3160000000000002;9267251064.0;9282139893.0;310803.0;-2361.1078655649044;-2367.733403052755;25.27378559225599;-0.01057927488545829;250.0;-250.01057927488546
0.32000000000000023;9257806632.0;9272675171.0;331093.0;-2361.1079078734874;-2366.912547928691;25.670288150895885;-0.01057714575836144;-833.3333333333334;833.322756187575
0.32400000000000023;9248362200.0;9263226929.0;334903.0;-2361.107950178948;-2355.280428506218;14.26672641457344;-0.010576365184533643;-500.0;499.98942363481547
0.32800000000000024;9238917767.0;9253745728.0;371672.0;-2361.1079924739056;-2366.355322135806;27.547717736751565;-0.010573739359642786;83.33333333333333;-83.34390707269297
0.33200000000000024;9229473335.0;9244363403.0;309564.0;-2361.1080347623347;-2352.213132819541;9.679006119104542;-0.010572107271400455;750.0;-750.0105721072714
0.33600000000000024;9220028902.0;9234959106.0;269429.0;-2361.108077043667;-2339.044829312712;-5.897439680102707;-0.010570333074610971;1250.0;-1250.0105703330746
0.34000000000000025;9210584469.0;9225626221.0;157881.0;-2361.1081193156315;-2348.025535647169;-3.6096556312018038;-0.010567991125753906;2666.6666666666665;-2666.6772346577923
0.34400000000000025;9201140036.0;9216238403.0;101266.0;-2361.1081615839057;-2327.060331774943;-27.971801781228805;-0.010567068557065795;-250.0;249.98943293144293
0.34800000000000025;9191695603.0;9206883545.0;11691.0;-2361.108203842245;-2352.6862907545196;-7.720385072059344;-0.010564584840722091;2750.0;-2750.0105645848407
0.35200000000000026;9182251169.0;9197578125.0;-127322.0;-2361.108246094623;-2320.5518521227614;-48.195645968318786;-0.010563094519966398;-1500.0;1499.98943690548
0.35600000000000026;9172806736.0;9188157349.0;-150979.0;-2361.108288338485;-2352.968471222103;-17.19848912491716;-0.010560965506556386;2166.6666666666665;-2166.677227632173
0.36000000000000026;9163362302.0;9178840942.0;-279006.0;-2361.108330574683;-2331.6983403254003;-46.150282270745265;-0.010559049428593426;-2000.0;1999.9894409505714
0.36400000000000027;9153917868.0;9169304810.0;-187307.0;-2361.108372805203;-2370.4686454014927;-1.878079435534346;-0.010557630048424471;-1083.3333333333333;1083.3227757032848
0.36800000000000027;9144473434.0;9159955444.0;-282375.0;-2361.1084150249367;-2347.070608201705;-30.980238869226014;-0.010554933396633714;-1583.3333333333333;1583.3227783999366
0.3720000000000003;9135029000.0;9150413818.0;-185183.0;-2361.108457239561;-2359.913182529211;-12.306186768010775;-0.010553656125011912;-2500.0;2499.989446343875
0.3760000000000003;9125584565.0;9140993042.0;-208841.0;-2361.108499443682;-2365.389430351734;-8.249461163242813;-0.010551030186434218;416.6666666666667;-416.6772176968531
0.3800000000000003;9116140131.0;9131638184.0;-298417.0;-2361.1085416415585;-2334.2206729215013;-44.792820804096664;-0.010549469152465463;-250.0;249.98945053084753
0.3840000000000003;9106695696.0;9122178955.0;-283623.0;-2361.10858383177;-2369.519094859004;-8.606801068249752;-0.010547552847128827;2833.3333333333335;-2833.3438808861806
0.3880000000000003;9097251261.0;9112758179.0;-307281.0;-2361.1086260097754;-2363.469447850056;-16.07597027198699;-0.010544501378717541;-750.0;749.9894554986213
0.3920000000000003;9087806826.0;9103293457.0;-286994.0;-2361.108668183807;-2360.011430377111;-18.316809930440286;-0.010543507869442692;-916.6666666666666;916.6561231587972
0.3960000000000003;9078362390.0;9093861694.0;-299666.0;-2361.108710346484;-2368.821061660655;-10.26754082339312;-0.010540669222791621;-916.6666666666666;916.6561259974438
0.4000000000000003;9068917955.0;9084413452.0;-295860.0;-2361.108752502632;-2353.299560445644;-25.560724207979547;-0.010539037020862452;-500.0;499.98946096297914
0.4040000000000003;9059473519.0;9074893799.0;-220642.0;-2361.1087946491284;-2388.717900674567;14.370653860917173;-0.010536624131418648;583.3333333333334;-583.3438699574648
0.4080000000000003;9050031508.0;9065489502.0;-260781.0;-2360.5028112514033;-2355.1518566705586;-21.603772295570707;151.49584943128502;-1666.6666666666667;1818.1625160979518
0.4120000000000003;9040648779.0;9055969849.0;-184602.0;-2345.682127700313;-2368.55495605731;-3.3896953960970677;3705.170887772624;166.66666666666666;3538.5042211059576
0.4160000000000003;9031213469.0;9046565552.0;-198826.0;-2358.827380765971;-2359.950153221905;-6.60959925860152;-3286.313266414595;0.0;-3286.313266414595
0.4200000000000003;9021796084.0;9037073364.0;-110562.0;-2354.3461494535477;-2353.436899066061;-4.177676022826745;1120.3078281058652;0.0;1120.3078281058652
0.4240000000000003;9012513660.0;9027691040.0;-156133.0;-2320.6057232914054;-2371.2006277095825;4.859028106951882;8435.106540535571;2583.3333333333335;5851.773207202237
0.4280000000000003;9003351819.0;9018281250.0;-110323.0;-2290.460341771902;-2340.3771543910207;-7.2370804980810135;7536.345379875797;-1000.0;8536.345379875798
0.43200000000000033;8994381279.0;9008970337.0;-34816.0;-2242.634871423434;-2338.376127531551;27.435919181475583;11956.367587117029;4166.666666666667;7789.700920450362
0.43600000000000033;8985671644.0;8999923096.0;-74274.0;-2177.408604627848;-2261.233774743617;-14.897588402930523;16306.566698896517;2500.0;13806.566698896517
0.44000000000000034;8977307157.0;8991013184.0;-32578.0;-2091.1214846798166;-2216.234992450863;-2.773590713942667;21571.77998700786;10583.333333333334;10988.446653674524
0.44400000000000034;8969380797.0;8982487793.0;-81505.0;-1981.5899536529719;-2141.7512076710686;-6.718387290698502;27382.882756711184;12666.666666666666;14716.216090044516
0.44800000000000034;8961987466.0;8974176636.0;36853.0;-1848.332736441993;-2066.2881896971317;20.29983704569804;33314.30430274474;16166.666666666666;17147.637636078078
0.45200000000000035;8955224167.0;8966491699.0;4200.0;-1690.824702969082;-1926.0122650287897;-3.1330704586719094;39377.00836822773;20750.0;18627.008368227733
0.45600000000000035;8949168035.0;8959218750.0;130493.0;-1514.0330008494839;-1805.4246671907456;26.590180950550575;44197.92552989952;24916.666666666668;19281.258863232855
0.46000000000000035;8943852378.0;8952687378.0;175255.0;-1328.9141720972361;-1622.5042298868746;11.367075804316983;46279.70718806193;32083.333333333332;14196.373854728601
0.46400000000000036;8939288927.0;8946826172.0;269772.0;-1140.8625054387728;-1471.3443665715308;45.85851996093652;47012.91666461583;38333.333333333336;8679.583331282494
0.46800000000000036;8935480404.0;8941662598.0;411588.0;-952.1307470341227;-1270.4308606903703;39.68683547863611;47182.93960116253;40166.666666666664;7016.272934495866
0.47200000000000036;8932403646.0;8937333984.0;471661.0;-769.1895211510396;-1083.8336453494578;44.998127950057096;45735.30647077078;46250.0;-514.6935292292198
0.47600000000000037;8930005522.0;8933560181.0;722651.0;-599.5309811953412;-929.3404754486456;91.99627587355292;42414.634988924605;43333.333333333336;-918.6983444087318
0.48000000000000037;8928211206.0;8930703735.0;767119.0;-448.57886034108935;-705.1088834926039;48.14154127388974;37738.03021356295;46916.666666666664;-9178.636453103714
0.4840000000000004;8926932310.0;8928495483.0;812671.0;-319.7242046448947;-550.6690392068997;58.75438229588758;32213.663924048662;45833.333333333336;-13619.669409284676
