Zeit[sec];Sollposition[°];Istposition[°];Positionsschleppfehler[°];Sollgeschwindigkeit[°/s];Istgeschwindigkeit[°/s];Geschwindigkeitsdifferenz[°/s];Sollbeschleunigung[°/s*s];Istbeschleunigung[°/s*s];Beschleunigungsdifferenz[°/s*s]
0.0;0.0;5493.0;-5493.0;-0.0;2.794797155315715;-3.124377155315715;0.0;0.0;0.0
0.004;0.0;5493.0;-5493.0;-0.0;2.2151883008203104;-2.5447683008203104;0.0;0.0;0.0
0.008;0.0;-5493.0;5493.0;-0.0;-2.906947733427126;3.236527733427126;0.0;0.0;0.0
0.012;0.0;-5493.0;5493.0;-0.0;-3.2234759327172102;3.55305593271721;0.0;0.0;0.0
0.016;0.0;-5493.0;5493.0;-0.0;-2.5651338719709735;2.8947138719709735;0.0;0.0;0.0
0.02;0.0;5493.0;-5493.0;-0.0;3.969161988830435;-4.298741988830435;0.0;0.0;0.0
0.024;0.0;5493.0;-5493.0;-0.0;1.972543772274825;-2.302123772274825;0.0;0.0;0.0
0.028;0.0;0.0;0.0;-0.0;0.6082761250448145;-0.6082761250448145;0.0;0.0;0.0
0.032;0.0;-5493.0;5493.0;-0.0;-2.5347881112696693;2.8643681112696693;0.0;0.0;0.0
0.036000000000000004;-161.0;-5493.0;5493.0;-0.040268566600117135;-3.335229167557488;3.664809167557488;-10.067141650029283;0.0;-10.067141650029283
0.04000000000000001;-1766.0;5493.0;-5557.0;-0.40130336190969984;2.49293697434315;-2.8423228318037435;-90.25869882739568;0.0;-90.25869882739568
0.04400000000000001;-9656.0;5493.0;-6289.0;-1.9724873995348997;2.0514033345283837;-2.6119206076676513;-392.79600940629996;0.0;-392.79600940629996
0.048000000000000015;-35735.0;-5493.0;608.0;-6.519743420382759;-2.7392784079468813;1.7536205631231443;-1136.8140052119647;0.0;-1136.8140052119647
0.05200000000000002;-101893.0;5493.0;-25443.0;-16.539505228618683;3.1044082398336452;-8.397185444288937;-2504.940452058981;0.0;-2504.940452058981
0.05600000000000002;-240261.0;-5493.0;-56320.0;-34.59214311624902;-3.082413809507727;-10.762564530815165;-4513.159471907584;0.0;-4513.159471907584
0.060000000000000026;-490177.0;5493.0;-161859.0;-62.47891823852766;5.0581328148699365;-38.40805735162192;-6971.693780569661;0.0;-6971.693780569661
0.06400000000000003;-894259.0;-5493.0;-333045.0;-101.02037560332619;-0.5443927237442225;-64.98134382250416;-9635.36434119963;0.0;-9635.36434119963
0.06800000000000003;-1496417.0;-21973.0;-626952.0;-150.53949907359274;-3.095304773683888;-112.11842002673296;-12379.780867566638;-166.66666666666666;-12213.11420089997
0.07200000000000004;-2341350.0;-43945.0;-1086693.0;-211.233424534518;-5.40343979398219;-180.2262456772536;-15173.481365231319;-333.3333333333333;-14840.148031897985
0.07600000000000004;-3473143.0;-126343.0;-1701548.0;-282.94814480732026;-22.838725719969887;-253.5676953422108;-17928.680068200563;-1000.0;-16928.680068200563
0.08000000000000004;-4932442.0;-258179.0;-2526958.0;-364.8248347002999;-36.997215054926116;-353.9318270557561;-20469.17247324491;-1916.6666666666667;-18552.505806578243
0.08400000000000005;-6753857.0;-549316.0;-3495785.0;-455.35376171421245;-77.27708447199193;-447.4607851155168;-22632.231753478136;-4000.0;-18632.231753478136
0.08800000000000005;-8964377.0;-1197510.0;-4448544.0;-552.6297783751955;-172.699174235943;-494.45185928104684;-24319.004165245773;-8416.666666666666;-15902.337498579107
0.09200000000000005;-11582489.0;-3515625.0;-4103996.0;-654.5281258661684;-607.0129644290184;-132.61853502179133;-25474.586872743203;-26666.666666666668;1192.0797939234653
0.09600000000000006;-14618447.0;-6685181.0;-3304284.0;-758.9894470013066;-766.6978970875047;-24.02004724605922;-26115.330283784573;-56750.0;30634.669716215427
0.10000000000000006;-18076096.0;-9519653.0;-3251205.0;-864.4120965746263;-708.3890340433479;-182.03161281492987;-26355.66239332991;-53250.0;26894.33760667009
0.10400000000000006;-21955494.0;-12821045.0;-3150517.0;-969.8495845570804;-852.8688663433807;-136.33795593132163;-26359.371995613543;-33000.0;6640.628004386457
0.10800000000000007;-26255215.0;-16836548.0;-2757409.0;-1074.9300304542992;-1007.7941966200964;-63.24904564147971;-26270.111474304686;-16166.666666666666;-10103.444807638018
0.11200000000000007;-30973771.0;-21264038.0;-2373497.0;-1179.6389979789842;-1104.9170733577264;-48.387288334487266;-26177.241881171256;-25916.666666666668;-260.5752145045876
0.11600000000000008;-36110202.0;-25894775.0;-2206080.0;-1284.1076560193208;-1165.3179787970748;-82.87661546546519;-26117.164510084138;-32500.0;6382.835489915862
0.12000000000000008;-41664105.0;-30942993.0;-2039645.0;-1388.4756725242241;-1267.2807339796398;-75.54362548296649;-26092.004126225846;-23500.0;-2592.004126225845
0.12400000000000008;-47635440.0;-36551514.0;-1730627.0;-1492.8337964767002;-1417.5569338726093;-11.156508897442336;-26089.530988119008;-21916.666666666668;-4172.864321452341
0.12800000000000009;-54024319.0;-42703857.0;-1295247.0;-1597.2195817819709;-1540.0585840276497;33.10325729866372;-26096.446326317677;-29000.0;2903.5536736823246
0.1320000000000001;-60830862.0;-49141846.0;-991696.0;-1701.6358449586019;-1608.7600497400235;15.648633800212565;-26104.06579415775;-30833.333333333332;4729.267539175584
0.1360000000000001;-68055147.0;-55821533.0;-864039.0;-1806.0711180248009;-1678.4850787654382;-11.364624401181118;-26108.818266549748;-25833.333333333332;-275.4849332164149
0.1400000000000001;-75697200.0;-63067017.0;-588279.0;-1910.513075940158;-1814.9192200395041;37.19149515334675;-26110.48947883927;-21750.0;-4360.48947883927
0.1440000000000001;-83757017.0;-70526733.0;-516039.0;-2014.9540466576127;-1866.7511090739247;-11.080027930600863;-26110.242679363695;-22250.0;-3860.2426793636937
0.1480000000000001;-92234582.0;-78228149.0;-619865.0;-2119.3912950412605;-1923.5496222307213;-64.95260211157961;-26109.312095911948;-21833.333333333332;-4275.978762578614
0.1520000000000001;-101129883.0;-86539307.0;-531707.0;-2223.82516018568;-2087.5796867585273;-0.07255823839841469;-26108.466286104886;-20750.0;-5358.4662861048855
0.1560000000000001;-110442912.0;-95273438.0;-438319.0;-2328.2570899632324;-2193.713803559607;7.228909769974052;-26107.982444388086;-24250.0;-1857.9824443880852
0.16000000000000011;-120173666.0;-104375610.0;-394623.0;-2432.6884148229046;-2275.494675935211;-12.801575479784788;-26107.831214918064;-28083.333333333332;1975.5021184152674
0.16400000000000012;-130322146.0;-113796387.0;-450048.0;-2537.119900944154;-2363.9063149903363;-32.14713770176286;-26107.87153031231;-27083.333333333332;975.4618030210231
0.16800000000000012;-140888354.0;-123651123.0;-489240.0;-2641.5517910140297;-2476.211256685322;-26.625108348589492;-26107.972517468967;-22416.666666666668;-3691.3058508022978
0.17200000000000013;-151872290.0;-134016724.0;-435294.0;-2745.9840244049315;-2596.4583104884036;-7.572939881181355;-26108.058347725433;-24833.333333333332;-1274.7250143921
0.17600000000000013;-163273957.0;-144810791.0;-370610.0;-2850.4164432219923;-2700.436690847609;-4.145543346387512;-26108.104704265203;-27916.666666666668;1808.5619624014662
0.18000000000000013;-175093353.0;-155912476.0;-416038.0;-2954.8489123722743;-2774.980866375766;-36.759352716060675;-26108.11728757051;-27916.666666666668;1808.54937909616
0.18400000000000014;-187330479.0;-167536011.0;-357345.0;-3059.2813585191557;-2920.1279893104215;7.476912531677954;-26108.111536720346;-24750.0;-1358.1115367203438
0.18800000000000014;-199985335.0;-179681396.0;-194532.0;-3163.713761509459;-3022.9445344671435;15.629777953528901;-26108.100747575805;-28250.0;2141.8992524241958
0.19200000000000014;-213057920.0;-191749878.0;-526352.0;-3268.1461302097746;-3028.0142943793976;-103.64209130497784;-26108.092175078924;-23416.666666666668;-2691.425508412255
0.19600000000000015;-226548234.0;-204417114.0;-677147.0;-3372.578481562479;-3189.4782698905337;-55.6582054415685;-26108.087838176063;-20583.333333333332;-5524.754504842729
0.20000000000000015;-240456278.0;-217787476.0;-542546.0;-3477.0108290987478;-3326.3512407613975;-15.141536593879664;-26108.086884067234;-23916.666666666668;-2191.420217400566
0.20400000000000015;-254782052.0;-231553345.0;-430166.0;-3581.4431797013976;-3446.825014643621;7.642687347147785;-26108.08765066247;-30333.333333333332;4225.245682670863
0.20800000000000016;-269525555.0;-245852051.0;-202680.0;-3685.875534914659;-3564.9878058864265;35.02228981555572;-26108.088803315353;-36666.666666666664;10558.577863351311
0.21200000000000016;-284686787.0;-260266113.0;-277567.0;-3790.3078935526696;-3613.6658196522867;-25.225268831305584;-26108.08965950264;-25750.0;-358.0896595026388
0.21600000000000016;-300265600.0;-275086670.0;-363689.0;-3894.703113768868;-3701.5949118748504;-46.895853152847394;-26098.805054049648;-22750.0;-3348.805054049649
0.22000000000000017;-316261034.0;-290610352.0;-164356.0;-3998.858198921247;-3888.3451551706994;47.39673632902122;-26038.771288094722;-22250.0;-3788.771288094722
0.22400000000000017;-332670175.0;-306441650.0;-74608.0;-4102.285210922337;-3965.2413201937043;25.37755332858069;-25856.75300027242;-28583.333333333332;2726.5803330609124
0.22800000000000017;-349486876.0;-322586060.0;-87219.0;-4204.175004592172;-4017.2986023964017;-27.189647034150312;-25472.448417458734;-29333.333333333332;3860.884915874596
0.23200000000000018;-366699795.0;-338928223.0;-313364.0;-4303.229631373564;-4111.8387291580175;-49.04001527793844;-24763.656695348116;-21250.0;-3513.656695348118
0.23600000000000018;-384289666.0;-355962524.0;-250470.0;-4397.467475872926;-4252.141149463711;-5.738656408954739;-23559.461124840484;-21500.0;-2059.4611248404817
0.24000000000000019;-402227645.0;-373397827.0;-175220.0;-4484.494615278298;-4370.522760205436;19.996494157990128;-21756.784851342898;-24250.0;2493.2151486571
0.2440000000000002;-420476207.0;-390975952.0;-322777.0;-4562.140281340166;-4391.172729383674;-59.61409259431093;-19411.41651546718;-29500.0;10088.583484532819
0.2480000000000002;-438991776.0;-409163818.0;-193991.0;-4628.89191158809;-4566.363258703778;39.95381469043605;-16687.907561980865;-21916.666666666668;5228.759104685803
0.25200000000000017;-457727715.0;-427604370.0;-106046.0;-4683.984574966894;-4624.817758368509;30.303693703846875;-13773.165844700998;-24083.333333333332;10310.167488632334
0.25600000000000017;-476637135.0;-446341553.0;29760.0;-4727.354762263635;-4650.39440187466;1.8358329132306608;-10842.54682418532;-23166.666666666668;12324.119842481348
0.2600000000000002;-495675223.0;-465100708.0;-14516.0;-4759.521822185763;-4713.973965612736;12.245637616345448;-8041.76498053198;-17583.333333333332;9541.568352801352
0.2640000000000002;-514800939.0;-483997192.0;-77450.0;-4781.428732322632;-4708.870713899272;-35.63066282198179;-5476.7275342171615;-11666.666666666666;6189.9391324495045
0.2680000000000002;-533978927.0;-503179321.0;32602.0;-4794.496715796528;-4801.423093631144;35.3601227383142;-3266.9958684741687;-5833.333333333333;2566.3374648591644
0.2720000000000002;-553182048.0;-522279053.0;-13594.0;-4800.780153604308;-4783.227211757302;-4.070051023893939;-1570.859451944898;-11250.0;9679.140548055102
0.2760000000000002;-572392844.0;-541625977.0;145684.0;-4802.698741796765;-4810.239297225989;22.06890673305952;-479.64704811420233;-7166.666666666667;6687.019618552465
0.2800000000000002;-591602530.0;-560571899.0;-114411.0;-4802.421273563489;-4762.56790008603;-45.800786740242074;69.36705831890322;-2083.3333333333335;2152.7003916522367
0.2840000000000002;-610808326.0;-579677124.0;-219497.0;-4801.4486731534425;-4774.430175216689;-41.31713303333618;243.15010251166314;2416.6666666666665;-2173.5165641550034
0.2880000000000002;-630010616.0;-599188843.0;84072.0;-4800.572411031734;-4882.999404669512;86.00644618129172;219.06553042708765;-83.33333333333333;302.39886376042097
0.2920000000000002;-649210830.0;-618458862.0;149662.0;-4800.053121399329;-4801.472202242316;9.34497449801438;129.82240810129042;-8666.666666666666;8796.489074767956
0.2960000000000002;-668410262.0;-637651978.0;141291.0;-4799.8577861042195;-4793.16260974514;1.2684145903858735;48.83382377738599;-2500.0;2548.833823777386
0.3000000000000002;-687609676.0;-656817627.0;107024.0;-4799.85333143672;-4808.140160582097;14.582883862478411;1.1136668749713863;2833.3333333333335;-2832.219666458362
0.3040000000000002;-706809349.0;-676197510.0;287477.0;-4799.917904956989;-4822.923169143003;40.314624702099536;-16.1433800674331;2833.3333333333335;-2849.4767134007666
0.3080000000000002;-726009269.0;-695203857.0;94307.0;-4799.979878859443;-4764.348952808084;-29.87158712202381;-15.493475613311603;916.6666666666666;-932.1601422799782
0.3120000000000002;-745209326.0;-714331055.0;21736.0;-4800.014062478272;-4782.582135700821;-16.05580257967631;-8.545904707261798;1250.0;-1258.5459047072618
0.3160000000000002;-764409417.0;-733590088.0;80796.0;-4800.022565429717;-4806.0551748638145;10.909865861965045;-2.125737861433663;2916.6666666666665;-2918.7924045281
0.32000000000000023;-783609486.0;-752761230.0;51868.0;-4800.016929556774;-4779.435237873069;-17.469915597947875;1.4089682358644495;-2166.6666666666665;2168.075634902531
0.32400000000000023;-802809517.0;-772031250.0;121806.0;-4800.0076046720205;-4826.123088563855;33.41116749167668;2.3312211883421696;-1666.6666666666667;1668.997887855009
0.32800000000000024;-822009520.0;-791273804.0;164306.0;-4800.000347377441;-4820.143582881201;29.988677472831114;1.814323644794058;-1416.6666666666667;1418.4809903114608
0.33200000000000024;-841209507.0;-810444946.0;135428.0;-4799.996709971208;-4785.529072125382;-6.35002978072589;0.9093515584481793;83.33333333333333;-82.42398177488515
0.33600000000000024;-860409492.0;-829583130.0;73615.0;-4799.995923863599;-4788.7016740380805;-6.880373687834435;0.19652690207294654;750.0;-749.803473097927
0.34000000000000025;-879609479.0;-848682861.0;-26640.0;-4799.996578928734;-4769.557301199396;-32.03751840535551;-0.16376628377656743;2500.0;-2500.1637662837766
0.34400000000000025;-898809470.0;-867974854.0;65367.0;-4799.997553381243;-4813.516725960005;17.4425577672082;-0.24361312716791872;1250.0;-1250.243613127168
0.34800000000000025;-918009464.0;-887162476.0;53000.0;-4799.99827599474;-4813.30848611519;16.491524669534556;-0.18065337417283445;-1750.0;1749.8193466258272
0.35200000000000026;-937209460.0;-906350098.0;40630.0;-4799.998617264742;-4758.728282039134;-38.83175213738832;-0.08531750063411891;-3083.3333333333335;3083.2480158326994
0.35600000000000026;-956409455.0;-925317993.0;-191469.0;-4799.998674139164;-4763.025706625833;-48.460840443067354;-0.014218605429050513;4833.333333333333;-4833.347551938762
0.36000000000000026;-975609451.0;-944483643.0;-225815.0;-4799.998595993257;-4806.374876915294;-7.172660899640505;0.019536476656867308;2750.0;-2749.980463523343
0.36400000000000027;-994809446.0;-964017334.0;107881.0;-4799.9984948501915;-4883.738599157232;90.21281633495255;0.025285766469096416;-1333.3333333333333;1333.3586190998024
0.36800000000000027;-1014009440.0;-983078613.0;-30836.0;-4799.998424185967;-4770.02202917727;-31.826687172221682;0.01766605601005722;-8166.666666666667;8166.684332722677
0.3720000000000003;-1033209435.0;-1002365112.0;55668.0;-4799.998393325936;-4806.479135808412;9.820748382842794;0.007715007768638316;-2000.0;2000.0077150077686
0.3760000000000003;-1052409429.0;-1021690063.0;180625.0;-4799.998390401035;-4866.059026147454;76.89811378296508;0.0007312253273994429;3166.6666666666665;-3166.665935441339
0.3800000000000003;-1071609424.0;-1040960083.0;250650.0;-4799.998399756032;-4800.07218762572;15.112795278633712;-0.002338749254704453;-1750.0;1749.9976612507453
0.3840000000000003;-1090809418.0;-1060021362.0;111935.0;-4799.998410351351;-4766.6202904933125;-26.66200363396365;-0.00264882964984281;1250.0;-1250.0026488296498
0.3880000000000003;-1110009413.0;-1079126587.0;17165.0;-4799.9984173033745;-4771.659745873124;-27.308758028976627;-0.001738005948936916;2416.6666666666665;-2416.6684046726155
0.3920000000000003;-1129209407.0;-1098352661.0;43245.0;-4799.998420088618;-4803.378319101342;5.974606055703589;-0.0006963109626667574;5500.0;-5500.000696310963
0.3960000000000003;-1148409402.0;-1117518311.0;8900.0;-4799.998420126721;-4805.6646497211295;6.200231354187963;-9.525592759018764e-06;-1166.6666666666667;1166.666657141074
0.4000000000000003;-1167609397.0;-1136810303.0;100898.0;-4799.998419055511;-4807.936363681626;13.99182359421502;0.00026780253392644227;-3916.6666666666665;3916.6669344692004
0.4040000000000003;-1186809391.0;-1155959473.0;50073.0;-4799.998417961146;-4786.710780613684;-10.28325908809802;0.0002735912403295515;-833.3333333333334;833.3336069245737
0.4080000000000003;-1206009386.0;-1175147095.0;37700.0;-4799.998417284642;-4800.450759118246;2.714340490354516;0.00016912599676288664;250.0;-249.99983087400324
0.4120000000000003;-1225209380.0;-1194395142.0;85753.0;-4799.998417039166;-4808.354381931556;13.50114423222476;6.136883712315466e-05;1250.0;-1249.9999386311629
0.4160000000000003;-1244409375.0;-1213478394.0;-30990.0;-4799.998417060794;-4779.284792020432;-22.573025170840992;-5.406946002040058e-06;750.0;-750.000005406946
0.4200000000000003;-1263609370.0;-1232726440.0;17062.0;-4799.9984171807;-4798.849660049947;-0.12503699921853695;-2.9976490623084828e-05;-750.0;749.9999700235094
0.4240000000000003;-1282809364.0;-1251979980.0;70607.0;-4799.99841729272;-4827.497313935569;31.73531682736848;-2.8004933483316563e-05;666.6666666666666;-666.6666946716001
0.4280000000000003;-1302009359.0;-1270980835.0;-128533.0;-4799.998417358048;-4729.100414353873;-78.60998287054008;-1.6332023733411916e-05;-1500.0;1499.9999836679763
0.43200000000000033;-1321209353.0;-1290069580.0;-239782.0;-4799.998417378849;-4787.1384823300805;-27.246854987884035;-5.2002633310621604e-06;5416.666666666667;-5416.66667186693
0.43600000000000033;-1340409348.0;-1309345093.0;-164264.0;-4799.998417374206;-4833.919879262639;24.065621896737866;1.1607426131376997e-06;0.0;1.1607426131376997e-06
0.44000000000000034;-1359609342.0;-1328763428.0;54077.0;-4799.998417360975;-4844.860873889391;48.10707651249959;3.30783223034814e-06;-3333.3333333333335;3333.3333366411657
0.44400000000000034;-1378809337.0;-1347797241.0;-112105.0;-4799.998417349779;-4779.200972477036;-27.523744891959723;2.7989699447061867e-06;-5416.666666666667;5416.666669465637
0.44800000000000034;-1398009332.0;-1367105713.0;-3627.0;-4799.998417343418;-4801.360777373364;1.1447400167553496;1.590251486049965e-06;-833.3333333333334;833.3333349235849
0.45200000000000035;-1417209326.0;-1386502075.0;192740.0;-4799.998417341637;-4857.584219731619;69.15020238431407;4.4519765651784837e-07;2416.6666666666665;-2416.666666221469
0.45600000000000035;-1436409321.0;-1405689697.0;180367.0;-4799.998417342337;-4779.533106976602;-9.643290366146175;-1.7507773009128869e-07;-4083.3333333333335;4083.3333331582558
0.46000000000000035;-1455609315.0;-1424811401.0;102077.0;-4799.9984173438;-4785.010010583227;-8.863786758689457;-3.6561687011271715e-07;3416.6666666666665;-3416.6666670322834
0.46400000000000036;-1474809310.0;-1443867188.0;-42131.0;-4799.998417345136;-4778.337280189849;-24.188997153057244;-3.340119292261079e-07;4000.0;-4000.000000334012
0.46800000000000036;-1494009305.0;-1463093262.0;-16051.0;-4799.998417345518;-4794.992955383236;-5.968521961089209;-9.549694368615746e-08;4416.666666666667;-4416.666666762164
0.47200000000000036;-1513209299.0;-1482363281.0;53973.0;-4799.998417345644;-4830.883266285657;34.12322894036879;-3.1604940886609256e-08;-2750.0;2749.999999968395
0.47600000000000037;-1532409294.0;-1501550903.0;41600.0;-4799.9984173455805;-4795.647710605215;-1.8547067403596884;1.5916157281026244e-08;-4083.3333333333335;4083.3333333492496
0.48000000000000037;-1551609288.0;-1520678101.0;-31196.0;-4799.9984173455805;-4780.337571205595;-21.532606140025564;0.0;666.6666666666666;-666.6666666666666
0.4840000000000004;-1570809283.0;-1539904175.0;-5117.0;-4799.99841734539;-4803.468651831378;3.1632144858003812;4.75210981676355e-08;666.6666666666666;-666.6666666191455
0.4880000000000004;-1590009277.0;-1559174194.0;64908.0;-4799.998417345262;-4806.619148191326;10.515210845818729;3.205968823749572e-08;250.0;-249.9999999679403
0.4920000000000004;-1609209272.0;-1578328857.0;19576.0;-4799.99841734539;-4797.282379740576;-1.5414776047555279;-3.205968823749572e-08;-750.0;749.9999999679403
