Zeit[sec];Sollposition[°];Istposition[°];Positionsschleppfehler[°];Sollgeschwindigkeit[°/s];Istgeschwindigkeit[°/s];Geschwindigkeitsdifferenz[°/s];Sollbeschleunigung[°/s*s];Istbeschleunigung[°/s*s];Beschleunigungsdifferenz[°/s*s]
0.0;-9979199999.0;-9979194946.0;-5053.0;0.0;1.3020139300972224;-1.6051939301498372;0.0;83.33333333333333;-83.33333333333333
0.004;-9979199999.0;-9979194946.0;-5053.0;0.0;1.077817741267383;-1.3809977413199979;0.0;0.0;0.0
0.008;-9979199999.0;-9979205933.0;5934.0;0.0;-1.6281703465282917;1.9842103465448546;0.0;-83.33333333333333;83.33333333333333
0.012;-9979199999.0;-9979200439.0;440.0;0.0;1.1640837377086282;-1.1376837376838733;0.0;0.0;0.0
0.016;-9979199999.0;-9979200439.0;440.0;0.0;-0.06448276893049479;0.09088276895524956;0.0;83.33333333333333;-83.33333333333333
0.02;-9979199999.0;-9979200439.0;440.0;0.0;-0.9984382149130107;1.0248382149377655;0.0;83.33333333333333;-83.33333333333333
0.024;-9979199999.0;-9979194946.0;-5053.0;0.0;1.8192608168497681;-2.122440816902383;0.0;0.0;0.0
0.028;-9979199999.0;-9979205933.0;5934.0;0.0;-3.895724451035261;4.251764451051824;0.0;-83.33333333333333;83.33333333333333
0.032;-9979199999.0;-9979200439.0;440.0;0.0;-1.033251843266189;1.0596518432909439;0.0;0.0;0.0
0.036000000000000004;-9979199999.0;-9979200439.0;440.0;0.0;-1.235132297858596;1.2615322978833508;0.0;0.0;0.0
0.04000000000000001;-9979199999.0;-9979194946.0;-5053.0;0.0;2.1357062977552412;-2.438886297807856;0.0;0.0;0.0
0.04400000000000001;-9979200062.0;-9979200439.0;440.0;-0.01566665425748461;-1.096340563841164;1.122740563865919;-3.9166635643711523;0.0;-3.9166635643711523
0.048000000000000015;-9979200687.0;-9979194946.0;-5078.0;-0.1561287572795457;3.471957687482238;-3.782849271094925;-35.11552575551527;0.0;-35.11552575551527
0.05200000000000002;-9979203756.0;-9979200439.0;130.0;-0.7674044997879118;-1.0595053970441222;0.9960395104872402;-152.81893562709152;0.0;-152.81893562709152
0.05600000000000002;-9979213902.0;-9979211426.0;9526.0;-2.536533537442471;-4.037996866852045;4.211889848926698;-442.2822594136398;0.0;-442.2822594136398
0.060000000000000026;-9979322629.0;-9979200439.0;-7322.0;-27.181662331694476;-0.9191939654946327;-0.9853808612987053;-6161.282198563001;0.0;-6161.282198563001
0.06400000000000003;-9979434431.0;-9979211426.0;-45525.0;-27.95056129219129;-2.3339473711401224;-12.695128662598414;-192.2247401242032;-166.66666666666666;-25.55807345753655
0.06800000000000003;-9979601556.0;-9979244385.0;-121935.0;-41.781044436311724;-7.595359290227294;-27.062854413733547;-3457.620786030109;-333.3333333333333;-3124.2874526967757
0.07200000000000004;-9979836763.0;-9979304810.0;-195228.0;-58.80182025403425;-17.28900292082876;-27.854303569347348;-4255.193954430631;-833.3333333333334;-3421.8606210972976
0.07600000000000004;-9980153186.0;-9979425659.0;-268174.0;-79.10575405610349;-30.98070275041461;-33.5582153608496;-5075.983450517311;-1666.6666666666667;-3409.3167838506447
0.08000000000000004;-9980561799.0;-9979705811.0;-255031.0;-102.15328979194824;-75.55553590211272;-6.498605747109934;-5761.883933961187;-3666.6666666666665;-2095.2172672945203
0.08400000000000005;-9981071788.0;-9980117798.0;-195543.0;-127.49720838122343;-104.26157710291446;4.404223607512037;-6335.979647318798;-6500.0;164.0203526812023
0.08800000000000005;-9981694209.0;-9980628662.0;-132945.0;-155.6051990231709;-128.58855174268038;8.545138383608503;-7026.99766048687;-7916.666666666667;889.6690061797967
0.09200000000000005;-9982442312.0;-9981188965.0;-126615.0;-187.02575627821045;-147.06181920205057;0.9718312415853632;-7855.139313759885;-6833.333333333333;-1021.805980426552
0.09600000000000006;-9983328012.0;-9981903076.0;-84097.0;-221.42502608078917;-179.71806740457566;6.77398363366666;-8599.81745064468;-6083.333333333333;-2516.4841173113455
0.10000000000000006;-9984360801.0;-9982738037.0;-51058.0;-258.19738054603215;-209.23301420882345;5.689109770131779;-9193.088616310746;-6500.0;-2693.088616310746
0.10400000000000006;-9985548087.0;-9983688354.0;-43953.0;-296.8213849313382;-239.10024295204877;0.6599311152028804;-9656.001096326505;-7666.666666666667;-1989.3344296598389
0.10800000000000007;-9986894918.0;-9984765015.0;-60475.0;-336.70763044373024;-267.8783081081733;-9.04592366212222;-9971.561378098017;-7833.333333333333;-2138.2280447646835
0.11200000000000007;-9988404068.0;-9985957031.0;-118097.0;-377.2875348592104;-299.06473075206577;-20.43043477659296;-10144.976103870036;-7250.0;-2894.976103870036
0.11600000000000008;-9990076599.0;-9987297363.0;-188018.0;-418.132880811929;-332.2924618475735;-31.551838166028972;-10211.336488179655;-8083.333333333333;-2128.003154846321
0.12000000000000008;-9991912584.0;-9988769531.0;-288827.0;-458.99613563020597;-367.7492691019401;-42.82465434165886;-10215.813704569242;-7916.666666666667;-2299.147037902576
0.12400000000000008;-9993911705.0;-9990450439.0;-344299.0;-499.78015585787443;-423.24514346597346;-31.507991194101066;-10196.005056917116;-9166.666666666666;-1029.3383902504497
0.12800000000000009;-9996073620.0;-9992296143.0;-398304.0;-540.478789976178;-462.2689363651872;-36.55623290120417;-10174.65852957588;-10416.666666666666;242.00813709078693
0.1320000000000001;-9998398110.0;-9994224243.0;-532914.0;-581.1224656424607;-489.8780885820985;-57.77431091896676;-10160.918916570694;-9833.333333333334;-327.58558323735974
0.1360000000000001;-10000885086.0;-9996372070.0;-610506.0;-621.7439630315774;-541.2328171509803;-51.75244661013039;-10155.374347279178;-9833.333333333334;-322.04101394584404
0.1400000000000001;-10003534544.0;-9998662720.0;-707817.0;-662.3643572287554;-577.1572516107857;-62.30187649844595;-10155.098549294478;-9333.333333333334;-821.765215961145
0.1440000000000001;-10006346512.0;-10001085205.0;-835778.0;-702.9920518309627;-606.6091174139679;-81.14886063683139;-10156.923650551846;-10250.0;93.0763494481539
0.1480000000000001;-10009321021.0;-10003754883.0;-879038.0;-743.6272882578083;-669.5760715026036;-61.40080170591784;-10158.809106711402;-10416.666666666666;257.8575599552639
0.1520000000000001;-10012458090.0;-10006561890.0;-947492.0;-784.2670654484234;-703.8629842930585;-71.85177095752817;-10159.944297653767;-10750.0;590.055702346234
0.1560000000000001;-10015757723.0;-10009555664.0;-991727.0;-824.9083189987732;-749.5224840731174;-69.48336375584813;-10160.31338758745;-11250.0;1089.6866124125495
0.16000000000000011;-10019219920.0;-10012719727.0;-1028235.0;-865.549183554913;-792.847457959421;-68.98920580765389;-10160.216139034957;-11250.0;1089.783860965042
0.16400000000000012;-10022844676.0;-10016098022.0;-1013074.0;-906.189011602995;-849.142056362234;-52.42603807446312;-10159.957012020499;-10916.666666666666;756.7096546461673
0.16800000000000012;-10026631988.0;-10019630127.0;-1006666.0;-946.8278973625518;-883.077608366713;-58.74646194623517;-10159.721439889183;-11833.333333333334;1673.6118934441517
0.17200000000000013;-10030581853.0;-10023294067.0;-1030980.0;-987.4661937735774;-916.580930474557;-67.34144035700308;-10159.574102756409;-10750.0;590.4258972435912
0.17600000000000013;-10034694270.0;-10027155762.0;-1020094.0;-1028.1042174558177;-970.1652448035106;-53.742623641427826;-10159.505920560065;-10166.666666666666;7.160746106601209
0.18000000000000013;-10038969239.0;-10031165771.0;-1023447.0;-1068.7421447928514;-1004.6566840140298;-60.090556162252255;-10159.48183425843;-9750.0;-409.481834258429
0.18400000000000014;-10043406759.0;-10035428467.0;-936665.0;-1109.3800250990348;-1064.1740123584195;-36.004294899003526;-10159.470076545858;-11250.0;1090.5299234541417
0.18800000000000014;-10048006831.0;-10039757080.0;-946517.0;-1150.0178354461207;-1073.0873281079903;-68.32000840380829;-10159.452586771466;-11916.666666666666;1757.214079895201
0.19200000000000014;-10052769453.0;-10044261475.0;-943139.0;-1190.6555307004085;-1135.0595386117698;-46.7829707441424;-10159.423813571948;-9000.0;-1159.423813571948
0.19600000000000015;-10057694626.0;-10049095459.0;-772724.0;-1231.2930721303208;-1204.613538095504;-7.641836384946146;-10159.385357478073;-11500.0;1340.6146425219276
0.20000000000000015;-10062781496.0;-10053896484.0;-797817.0;-1271.7175555001616;-1197.1804340421259;-57.21815537797511;-10106.120842460201;-10666.666666666666;560.545824206466
0.20400000000000015;-10068027501.0;-10058900757.0;-781875.0;-1311.5011717038124;-1260.3029501305073;-33.69218742897647;-9945.904050912703;-10250.0;304.09594908729787
0.20800000000000016;-10073429283.0;-10064141235.0;-690414.0;-1350.4455567915047;-1307.5885774763226;-21.09053802227959;-9736.096271923088;-9666.666666666666;-69.42960525642229
0.21200000000000016;-10078982015.0;-10069442139.0;-696346.0;-1388.1827616210833;-1329.8757361452804;-38.61392861344393;-9434.30120739464;-8750.0;-684.3012073946397
0.21600000000000016;-10084677433.0;-10074918823.0;-680380.0;-1423.8544071646938;-1368.2844706109763;-37.71790849523495;-8917.911385902642;-11166.666666666666;2248.7552807640245
0.22000000000000017;-10090504967.0;-10080521851.0;-685773.0;-1456.8835244867255;-1399.95214886301;-43.299126412128544;-8257.279330507914;-8000.0;-257.2793305079131
0.22400000000000017;-10096453071.0;-10086344604.0;-609984.0;-1487.0259594985193;-1445.0703530904948;-28.269609464356563;-7535.608752948463;-9916.666666666666;2381.0579137182035
0.22800000000000017;-10102508660.0;-10092134399.0;-694752.0;-1513.8972767226678;-1441.9000089765416;-68.42611003245815;-6717.829306037118;-8500.0;1782.1706939628825
0.23200000000000018;-10108656687.0;-10098204346.0;-614819.0;-1537.006467104918;-1520.3921853804216;-14.000355702969273;-5777.2975955625725;-7500.0;1722.7024044374275
0.23600000000000018;-10114881234.0;-10104345703.0;-565072.0;-1556.1368464496534;-1532.3469381458983;-24.459642357844814;-4782.594836183818;-8333.333333333334;3550.7384971495153
0.24000000000000019;-10121166986.0;-10110470581.0;-618018.0;-1571.4378213656037;-1533.2671632734687;-48.269874917002426;-3825.243728987573;-6583.333333333333;2758.08960434576
0.2440000000000002;-10127498917.0;-10116820679.0;-516285.0;-1582.9826354595689;-1596.7390769704953;3.6706251108428205;-2886.2035234913037;-6500.0;3613.7964765086963
0.2480000000000002;-10133863394.0;-10123214722.0;-425945.0;-1591.1192643530508;-1587.1731343400852;-14.309071276097484;-2034.157223370471;-6166.666666666667;4132.509443296196
0.25200000000000017;-10140250335.0;-10129520874.0;-464358.0;-1596.7350642962467;-1588.7388730753214;-25.26364321059873;-1403.949985798988;-3666.6666666666665;2262.7166808676784
0.25600000000000017;-10146652113.0;-10136068726.0;-289698.0;-1600.4444866450385;-1634.4330794183165;23.75303369463495;-927.3555871979511;-4916.666666666667;3989.311079468716
0.2600000000000002;-10153062187.0;-10142435303.0;-315813.0;-1602.5183351764354;-1589.194786887683;-27.926880332264773;-518.4621328492085;-1000.0;481.5378671507915
0.2640000000000002;-10159475601.0;-10148889771.0;-266326.0;-1603.3534357934195;-1616.0088928422406;-1.2156674450097853;-208.77515424604098;-1750.0;1541.224845753959
0.2680000000000002;-10165889373.0;-10155393677.0;-173769.0;-1603.4431080883712;-1618.899498020269;5.636069953919787;-22.41807373792426;-1166.6666666666667;1144.2485929287425
0.2720000000000002;-10172302232.0;-10161787720.0;-193263.0;-1603.2146873476602;-1605.3801300154628;-9.599746274074732;57.105185177761086;1083.3333333333333;-1026.2281481555722
0.2760000000000002;-10178714008.0;-10168401489.0;7098.0;-1602.943710964348;-1650.1866244258135;47.26048701566742;67.74409582806129;-2666.6666666666665;2734.410762494728
0.2800000000000002;-10185125021.0;-10174801025.0;-5800.0;-1602.7533991009798;-1603.5257597273066;0.06917187885983367;47.577965842037884;-250.0;297.5779658420379
0.2840000000000002;-10191535673.0;-10181277466.0;59161.0;-1602.66289337957;-1622.7440708667116;23.423887830358808;22.626430352431726;83.33333333333333;-60.7069029809016
0.2880000000000002;-10197946246.0;-10187764893.0;135713.0;-1602.6431019342344;-1615.3981290189997;20.822278913946093;4.947861333903347;166.66666666666666;-161.7188053327633
0.2920000000000002;-10204356873.0;-10194125977.0;86174.0;-1602.6566099553722;-1596.8449402768463;-0.6401964108083575;-3.377005284448842;2416.6666666666665;-2420.0436719511154
0.2960000000000002;-10210767580.0;-10200695801.0;245403.0;-1602.6766776268855;-1635.1364286801593;47.212035061108736;-5.016917878322147;-1250.0;1244.9830821216779
0.3000000000000002;-10217178343.0;-10207073364.0;212308.0;-1602.6907782631145;-1595.6563353376016;5.730328012634345;-3.5251590572329405;666.6666666666666;-670.1918257238996
0.3040000000000002;-10223589130.0;-10213456421.0;184636.0;-1602.6966271606395;-1604.29278511706;12.688794392298178;-1.4622243812709712;833.3333333333334;-834.7955577146043
0.3080000000000002;-10229999917.0;-10219916382.0;233825.0;-1602.6967294538072;-1608.6030708240346;19.939556185372567;-0.025573291907221574;750.0;-750.0255732919072
0.3120000000000002;-10236410695.0;-10226233521.0;140177.0;-1602.6944208154262;-1592.950666948989;-1.3353464983306367;0.5771595952523967;2416.6666666666665;-2416.089507071414
0.3160000000000002;-10242821464.0;-10232715454.0;211327.0;-1602.6920143236407;-1621.5402047621012;31.52401124682956;0.6016229463625677;-1083.3333333333333;1083.9349562796958
0.32000000000000023;-10249232226.0;-10239153442.0;238540.0;-1602.6904878592397;-1611.09674838119;22.715668175020483;0.3816161002418994;-500.0;500.3816161002419
0.32400000000000023;-10255642986.0;-10245531006.0;205338.0;-1602.689894417193;-1596.3810068837404;6.009863678803413;0.14836051167321784;-1000.0;1000.1483605116732
0.32800000000000024;-10262053746.0;-10252001953.0;265524.0;-1602.6898931782027;-1613.7480625219346;26.989241009101534;0.0003097475769209268;-333.3333333333333;333.33364308091024
0.33200000000000024;-10268464506.0;-10258395996.0;248807.0;-1602.6901177649709;-1593.1833789853306;5.421901582193414;-0.05614669203168887;416.6666666666667;-416.7228133586984
0.33600000000000024;-10274875268.0;-10264894409.0;336460.0;-1602.6903341156553;-1630.5413191430048;48.03893691242888;-0.05408767111703128;0.0;-0.05408767111703128
0.34000000000000025;-10281286030.0;-10271354370.0;385660.0;-1602.6904521446356;-1600.958082275577;21.407480046970022;-0.02950724507400082;-2250.0;2249.970492754926
0.34400000000000025;-10287696792.0;-10277742920.0;363448.0;-1602.6904743102712;-1602.1361609174535;21.252661272789055;-0.005541408881981624;1416.6666666666667;-1416.6722080755487
0.34800000000000025;-10294107554.0;-10284197388.0;407154.0;-1602.6904390079908;-1609.9678489741311;31.706628732701574;0.008825570091630652;-583.3333333333334;583.342158903425
0.35200000000000026;-10300518316.0;-10290541992.0;340996.0;-1602.6903839842962;-1585.004073922895;2.773373739302315;0.013755923646385781;2750.0;-2749.9862440763536
0.35600000000000026;-10306929078.0;-10297045898.0;434140.0;-1602.6903320136419;-1631.9936673915834;55.351649992834155;0.012992663585009723;-250.0;250.012992663585
0.36000000000000026;-10313339839.0;-10303511353.0;488833.0;-1602.6902910259712;-1603.6678273685725;30.307443667410553;0.01024691766815522;-2166.6666666666665;2166.6769135843347
0.36400000000000027;-10319750601.0;-10309883423.0;450141.0;-1602.6902599519544;-1595.4722495635003;19.790393496296247;0.00776850419015318;333.3333333333333;-333.32556482914316
0.36800000000000027;-10326161362.0;-10316348877.0;504834.0;-1602.6902345555372;-1611.3137154817507;38.91347653596176;0.0063491042965324596;-666.6666666666666;666.6730157709632
0.3720000000000003;-10332572123.0;-10322792358.0;537553.0;-1602.690211001736;-1610.4263649436161;39.98929487892178;0.00588845028914875;1750.0;-1749.9941115497109
0.3760000000000003;-10338982884.0;-10329312744.0;647178.0;-1602.6901871152486;-1634.5629373302907;70.70339196476084;0.0059716218743233185;-1583.3333333333333;1583.3393049552076
0.3800000000000003;-10345393645.0;-10335767212.0;690885.0;-1602.6901622304129;-1611.6382916899324;50.401190020819286;0.006221208934675815;-1833.3333333333333;1833.339554542268
0.3840000000000003;-10351804406.0;-10342166748.0;679660.0;-1602.6901365408394;-1603.870084353529;41.959506964788034;0.006422393369120982;916.6666666666666;-916.6602442732975
0.3880000000000003;-10358215167.0;-10348621216.0;723367.0;-1602.6901105122315;-1606.9080276148022;47.61989542409697;0.006507151965706726;416.6666666666667;-416.660159514701
0.3920000000000003;-10364625927.0;-10354987793.0;679183.0;-1602.6900845274815;-1593.9956005164088;32.05645414502442;0.006496187495486083;2416.6666666666665;-2416.660170479171
0.3960000000000003;-10371036688.0;-10361431274.0;711904.0;-1602.6900588032831;-1608.5396318372636;48.56377147521789;0.006431049598631944;0.0;0.006431049598631944
0.4000000000000003;-10377447448.0;-10367841797.0;711666.0;-1602.6900333860917;-1601.3269257560894;41.33681127554223;0.006354297852340096;333.3333333333333;-333.326979035481
0.4040000000000003;-10383858209.0;-10374147949.0;607058.0;-1602.6900082493605;-1581.8481961375774;15.581627261138465;0.006284182802573923;1000.0;-999.9937158171974
0.4080000000000003;-10390268969.0;-10380602417.0;650765.0;-1602.6899833469238;-1607.9153767873868;44.271253218723814;0.00622560918372983;500.0;-499.99377439081627
0.4120000000000003;-10396679729.0;-10386925049.0;562637.0;-1602.6899586360776;-1582.8624372271822;13.930658703975496;0.0061777115547556605;750.0;-749.9938222884452
0.4160000000000003;-10403090489.0;-10393297119.0;523947.0;-1602.6899340980667;-1602.4076518437266;31.15449814840008;0.006134502712029644;583.3333333333334;-583.3271988306213
0.4200000000000003;-10409501249.0;-10399718628.0;534696.0;-1602.6899097308715;-1597.1506465945095;26.542457542560214;0.006091798809393367;-1000.0;1000.0060917988094
0.4240000000000003;-10415912009.0;-10406046753.0;452061.0;-1602.6898855368004;-1588.6922362450064;13.125971664339431;0.006048517775525397;833.3333333333334;-833.3272848155578
0.4280000000000003;-10422322769.0;-10412484741.0;479289.0;-1602.6898615198927;-1604.5939493329004;30.66138905195544;0.006004226918321365;-1583.3333333333333;1583.3393375602516
0.43200000000000033;-10428733528.0;-10418757935.0;341723.0;-1602.6898376859192;-1573.0279660544395;-9.158530101812403;0.005958493375146645;1833.3333333333333;-1833.327374839958
0.43600000000000033;-10435144288.0;-10425157471.0;330499.0;-1602.689814040651;-1600.427624179572;17.567711968723643;0.0059113170323144;250.0;-249.99408868296769
0.44000000000000034;-10441555047.0;-10431546021.0;308290.0;-1602.6897905754317;-1595.8018852891178;11.609456838520146;0.005866304832125024;0.0;0.005866304832125024
0.44400000000000034;-10447965807.0;-10437885132.0;236641.0;-1602.6897673000713;-1579.6675609889105;-8.82378388656025;0.005818840122628899;-666.6666666666666;666.6724855067893
0.44800000000000034;-10454376566.0;-10444301147.0;241897.0;-1602.6897442053373;-1605.8605752175524;17.68461373307582;0.0057736834833121975;-333.3333333333333;333.3391070168166
0.45200000000000035;-10460787325.0;-10450673218.0;203208.0;-1602.6897212952686;-1589.318473233223;-1.1788050466566347;0.0057275171911896905;-333.3333333333333;333.3390608505245
0.45600000000000035;-10467198084.0;-10457012329.0;131560.0;-1602.6896985698656;-1592.1763064091206;-2.619828847991812;0.005681350728536927;1000.0;-999.9943186492715
0.46000000000000035;-10473608843.0;-10463466797.0;175269.0;-1602.6896760279737;-1606.5009181642085;14.327345744980903;0.005635472973608557;-1416.6666666666667;1416.6723021396404
0.46400000000000036;-10480019602.0;-10469778442.0;76155.0;-1602.6896536690165;-1574.0519395458773;-24.068450219595206;0.005589739316747;500.0;-499.99441026068325
0.46800000000000036;-10486430361.0;-10476139526.0;26480.0;-1602.689631495879;-1597.1178541273325;-3.9830131677031204;0.005543284373743518;583.3333333333334;-583.3277900489596
0.47200000000000036;-10492841120.0;-10482533569.0;9764.0;-1602.6896095091379;-1587.8660571172163;-14.237747891363142;0.005496685275829805;0.0;0.005496685275829805
0.47600000000000037;-10499251878.0;-10488773804.0;-160760.0;-1602.6895877076395;-1568.0875850837901;-44.24763782466471;0.005450374601423391;2166.6666666666665;-2166.661216292065
