Zeit[sec];Sollposition[°];Istposition[°];Positionsschleppfehler[°];Sollgeschwindigkeit[°/s];Istgeschwindigkeit[°/s];Geschwindigkeitsdifferenz[°/s];Sollbeschleunigung[°/s*s];Istbeschleunigung[°/s*s];Beschleunigungsdifferenz[°/s*s]
0.0;9817499999.0;9817503662.0;-3663.0;0.0;0.6602670916542411;-0.8800470917045773;0.0;0.0;0.0
0.004;9817499999.0;9817498169.0;1830.0;0.0;-0.5146218999102712;0.6244218999219159;0.0;0.0;0.0
0.008;9817499999.0;9817503662.0;-3663.0;0.0;1.8061260599344968;-2.025906059984833;0.0;0.0;0.0
0.012;9817499999.0;9817498169.0;1830.0;0.0;-0.3615965190753341;0.47139651908697877;0.0;0.0;0.0
0.016;9817499999.0;9817509155.0;-9156.0;0.0;5.189948274768889;-5.739308274744951;0.0;0.0;0.0
0.02;9817499999.0;9817498169.0;1830.0;0.0;-0.8803998658359051;0.9901998658475498;0.0;0.0;0.0
0.024;9817499999.0;9817492676.0;7323.0;0.0;-3.972058654792607;4.411438654798105;0.0;0.0;0.0
0.028;9817499999.0;9817503662.0;-3663.0;0.0;1.6076637947037817;-1.8274437947541178;0.0;0.0;0.0
0.032;9817499999.0;9817503662.0;-3663.0;0.0;0.8713118985965849;-1.091091898646921;0.0;0.0;0.0
0.036000000000000004;9817499999.0;9817503662.0;-3663.0;0.0;0.5648548736944795;-0.7846348737448157;0.0;0.0;0.0
0.04000000000000001;9817499999.0;9817498169.0;1830.0;0.0;-0.47991136091202496;0.5897113609236696;0.0;0.0;0.0
0.04400000000000001;9817499999.0;9817492676.0;7323.0;0.0;-3.0370499894693492;3.4764299894748474;0.0;0.0;0.0
0.048000000000000015;9817499999.0;9817503662.0;-3663.0;0.0;0.24815006929636002;-0.4679300693466961;0.0;0.0;0.0
0.05200000000000002;9817499999.0;9817498169.0;1830.0;0.0;0.5297922656685115;-0.41999226565686676;0.0;-83.33333333333333;83.33333333333333
0.05600000000000002;9817499999.0;9817503662.0;-3663.0;0.0;3.7228316451087595;-3.942611645159096;0.0;0.0;0.0
0.060000000000000026;9817431207.0;9817498169.0;1830.0;-17.19811879100644;-0.33950525523722175;0.44930525524886644;-4299.52969775161;0.0;-4299.52969775161
0.06400000000000003;9817369594.0;9817492676.0;-19953.0;-15.403345422793453;-2.2763172432854772;-5.739648136705478;448.6933420532466;83.33333333333333;365.3600087199133
0.06800000000000003;9817293667.0;9817476196.0;-69015.0;-18.9817112904217;-5.248169211678207;-15.27847975480784;-894.5914669070615;-166.66666666666666;-727.9248002403949
0.07200000000000004;9817212911.0;9817443237.0;-103387.0;-20.189006327237234;-7.1319551403447985;-15.903892687241724;-301.82375920388347;-666.6666666666666;364.84290746278316
0.07600000000000004;9817130702.0;9817410278.0;-148186.0;-20.552110715397976;-8.143373245373368;-20.187204675656627;-90.77609704018563;-583.3333333333334;492.55723629314775
0.08000000000000004;9817046451.0;9817366333.0;-185544.0;-21.062878956501017;-8.172927853584289;-23.285609695747354;-127.69206027576007;-750.0;622.3079397242399
0.08400000000000005;9816962458.0;9817305908.0;-208129.0;-20.998222022769024;-14.634741271182895;-18.605493506455254;16.16423343299811;-250.0;266.1642334329981
0.08800000000000005;9816885513.0;9817250977.0;-237335.0;-19.236118827278183;-10.55202848892659;-24.722322220982335;440.52579887271025;-750.0;1190.5257988727103
0.09200000000000005;9816821058.0;9817196045.0;-263603.0;-16.11379942459887;-11.005903981931509;-25.1102305060177;780.5798506698283;-83.33333333333333;863.9131840031616
0.09600000000000006;9816772168.0;9817146606.0;-286199.0;-12.222661301364587;-11.0775493266806;-24.10288346707419;972.7845308085707;-83.33333333333333;1056.117864141904
0.10000000000000006;9816742914.0;9817058716.0;-256665.0;-7.313344205392657;-18.89169445929676;-11.097524338686497;1227.3292739929825;-166.66666666666666;1393.995940659649
0.10400000000000006;9816734584.0;9817025757.0;-264902.0;-2.082472437861469;-9.439251607954501;-16.7538618103435;1307.717941882797;-83.33333333333333;1391.0512752161305
0.10800000000000007;9816746410.0;9816987305.0;-247523.0;2.9563265997530057;-5.73399451007694;-14.38553630183387;1259.6997594036186;166.66666666666666;1093.033092736952
0.11200000000000007;9816780363.0;9816970825.0;-231503.0;8.488329685259185;-5.3669448162764315;-8.63855217371511;1383.0007713765447;1250.0;133.00077137654475
0.11600000000000008;9816836754.0;9816970825.0;-211022.0;14.09764372242308;-0.5981468769460917;-6.943017950648998;1402.3285092909737;916.6666666666666;485.661842624307
0.12000000000000008;9816910979.0;9816987305.0;-184783.0;18.55632879356319;6.429308698393404;-6.8363677235808105;1114.6712677850273;833.3333333333334;281.3379344516941
0.12400000000000008;9816996739.0;9816998291.0;-132438.0;21.440031114817113;5.582668662056327;2.3036269496810906;720.9255803134811;500.0;220.92558031348108
0.12800000000000009;9817088370.0;9817025757.0;-81211.0;22.907705689563826;5.65529320769012;9.145593390565264;366.91864368667825;666.6666666666666;-299.7480229799884
0.1320000000000001;9817180979.0;9817069702.0;-37135.0;23.152184990594197;12.134938383996486;7.642006073989082;61.11982525759263;500.0;-438.88017474240735
0.1360000000000001;9817270406.0;9817124634.0;-83.0;22.356811910388352;14.714792298197747;8.27626595845712;-198.8432700514613;833.3333333333334;-1032.1766033847946
0.1400000000000001;9817354458.0;9817146606.0;69287.0;21.01302595825435;6.6530676262602215;20.339551869833258;-335.9464880335006;250.0;-585.9464880335006
0.1440000000000001;9817429876.0;9817207031.0;96176.0;18.85459850680811;11.865743012294173;15.733499153825365;-539.60686286156;500.0;-1039.60686286156
0.1480000000000001;9817499999.0;9817245483.0;138385.0;17.530802750346616;11.95446432222426;16.513752622775115;-330.94893911537326;-333.3333333333333;2.3843942179600504
0.1520000000000001;9817499999.0;9817300415.0;156822.0;0.0;13.585608598180116;14.1660926113383;-4382.700687586654;250.0;-4632.700687586654
0.1560000000000001;9817499999.0;9817327881.0;171707.0;0.0;6.293022866487503;14.597267127876085;0.0;-166.66666666666666;166.66666666666666
0.16000000000000011;9817557485.0;9817344360.0;155639.0;14.37129983597412;1.7066276134178042;7.734431933968377;3592.8249589935303;-250.0;3842.8249589935303
0.16400000000000012;9817557947.0;9817349854.0;172937.0;0.11552311815478933;0.3612031128257513;15.713012720538337;-3563.944179454833;-916.6666666666666;-2647.2775127881664
0.16800000000000012;9817555499.0;9817377319.0;180012.0;-0.611993967468149;7.045025404959917;12.390594873979902;-181.87927140573458;-666.6666666666666;484.78739526093204
0.17200000000000013;9817552851.0;9817393799.0;163174.0;-0.6619266337037695;-1.8349784043803812;11.53602230727621;-12.483166558905106;250.0;-262.4831665589051
0.17600000000000013;9817499999.0;9817410278.0;144185.0;-13.21290235295699;5.830917773425579;2.19265353260311;-3137.743929813305;-83.33333333333333;-3054.410596479972
0.18000000000000013;9817499999.0;9817404785.0;127126.0;0.0;3.7350040770843624;-1.7453439002553188;3303.2255882392474;-166.66666666666666;3469.892254905914
0.18400000000000014;9817499999.0;9817388306.0;112002.0;0.0;-4.667419080093503;3.48688693188429;0.0;-750.0;750.0
0.18800000000000014;9817499999.0;9817399292.0;100707.0;0.0;0.9015234331637622;5.063477217108058;0.0;0.0;0.0
0.19200000000000014;9817499999.0;9817393799.0;106200.0;0.0;-0.8125890032500028;7.184589003240034;0.0;0.0;0.0
0.19600000000000015;9817499999.0;9817404785.0;95214.0;0.0;4.72084830712527;0.9919916928770549;0.0;0.0;0.0
0.20000000000000015;9817499999.0;9817404785.0;95214.0;0.0;0.4418784515336156;5.270961548468709;0.0;166.66666666666666;-166.66666666666666
0.20400000000000015;9817499999.0;9817404785.0;95214.0;0.0;0.4946995540857315;5.218140445916593;0.0;0.0;0.0
0.20800000000000016;9817499999.0;9817404785.0;95214.0;0.0;-0.6480413883030415;6.3608813883053665;0.0;0.0;0.0
0.21200000000000016;9817499999.0;9817404785.0;95214.0;0.0;-0.4576751817986369;6.170515181800962;0.0;-166.66666666666666;166.66666666666666
0.21600000000000016;9817499999.0;9817410278.0;89721.0;0.0;2.35947071762383;3.023789282384642;0.0;0.0;0.0
0.22000000000000017;9817499999.0;9817404785.0;95214.0;0.0;-1.2238437624126672;6.936683762414992;0.0;0.0;0.0
0.22400000000000017;9817499999.0;9817404785.0;95214.0;0.0;-1.2807713116258383;6.993611311628164;0.0;0.0;0.0
0.22800000000000017;9817499999.0;9817415771.0;84228.0;0.0;0.5893524150550365;4.464327584959582;0.0;83.33333333333333;-83.33333333333333
0.23200000000000018;9817499999.0;9817415771.0;84228.0;0.0;-0.6749448677152395;5.728624867729858;0.0;0.0;0.0
0.23600000000000018;9817499999.0;9817421265.0;78734.0;0.0;0.7989121455624699;3.925127854449279;0.0;0.0;0.0
0.24000000000000019;9817499999.0;9817421265.0;78734.0;0.0;1.8412931412756444;2.882746858736105;0.0;-83.33333333333333;83.33333333333333
0.2440000000000002;9817499999.0;9817421265.0;78734.0;0.0;-0.6674669125080108;5.39150691251976;0.0;0.0;0.0
0.2480000000000002;9817499999.0;9817421265.0;78734.0;0.0;-3.01407194506377;7.738111945075519;0.0;83.33333333333333;-83.33333333333333
0.25200000000000017;9817499999.0;9817443237.0;56762.0;0.0;3.9881325585097076;-0.5824125585414985;0.0;83.33333333333333;-83.33333333333333
0.25600000000000017;9817499999.0;9817443237.0;56762.0;0.0;1.179058339342475;2.226661660625734;0.0;83.33333333333333;-83.33333333333333
0.2600000000000002;9817499999.0;9817443237.0;56762.0;0.0;-0.0033386802524328235;3.409058680220642;0.0;-83.33333333333333;83.33333333333333
0.2640000000000002;9817499999.0;9817448730.0;51269.0;0.0;1.717553067535162;1.3585869324391933;0.0;-83.33333333333333;83.33333333333333
0.2680000000000002;9817499999.0;9817465210.0;34789.0;0.0;4.264884458616376;-2.1775444585644688;0.0;83.33333333333333;-83.33333333333333
0.2720000000000002;9817499999.0;9817459717.0;40282.0;0.0;0.3043434081748128;2.112576591734693;0.0;0.0;0.0
0.2760000000000002;9817499999.0;9817454224.0;45775.0;0.0;-1.2439426470771433;3.9904426471167573;0.0;-83.33333333333333;83.33333333333333
0.2800000000000002;9817499999.0;9817459717.0;40282.0;0.0;2.3302805397063495;0.08663946020315638;0.0;-166.66666666666666;166.66666666666666
0.2840000000000002;9817499999.0;9817454224.0;45775.0;0.0;-1.2717336060851812;4.018233606124795;0.0;0.0;0.0
0.2880000000000002;9817499999.0;9817454224.0;45775.0;0.0;-4.000698220022023;6.747198220061637;0.0;166.66666666666666;-166.66666666666666
0.2920000000000002;9817499999.0;9817465210.0;34789.0;0.0;4.3049554810673;-2.2176154810153927;0.0;-83.33333333333333;83.33333333333333
0.2960000000000002;9817499999.0;9817465210.0;34789.0;0.0;3.89381797093153;-1.8064779708796226;0.0;0.0;0.0
0.3000000000000002;9817499999.0;9817459717.0;40282.0;0.0;0.0973888182938099;2.319531181615696;0.0;-83.33333333333333;83.33333333333333
0.3040000000000002;9817499999.0;9817465210.0;34789.0;0.0;-0.8741501354724169;2.9614901355243246;0.0;166.66666666666666;-166.66666666666666
0.3080000000000002;9817499999.0;9817470703.0;29296.0;0.0;-3.642384364806116;5.400144364727915;0.0;166.66666666666666;-166.66666666666666
0.3120000000000002;9817499999.0;9817487183.0;12816.0;0.0;4.138498286634683;-3.369538286635332;0.0;0.0;0.0
0.3160000000000002;9817499999.0;9817481689.0;18310.0;0.0;0.6551003224626184;0.4434996775396016;0.0;-83.33333333333333;83.33333333333333
0.32000000000000023;9817499999.0;9817476196.0;23803.0;0.0;-4.300554606974125;5.7287346070383265;0.0;-83.33333333333333;83.33333333333333
0.32400000000000023;9817499999.0;9817481689.0;18310.0;0.0;-1.8059192056506872;2.904519205652907;0.0;0.0;0.0
0.32800000000000024;9817499999.0;9817481689.0;18310.0;0.0;-2.2056570395752786;3.3042570395774984;0.0;0.0;0.0
0.33200000000000024;9817499999.0;9817492676.0;7323.0;0.0;3.371817095503211;-2.932437095497713;0.0;-83.33333333333333;83.33333333333333
0.33600000000000024;9817499999.0;9817487183.0;12816.0;0.0;2.0378692390322684;-1.2689092390329169;0.0;0.0;0.0
0.34000000000000025;9817499999.0;9817481689.0;18310.0;0.0;-0.23940854565799236;1.3380085456602124;0.0;0.0;0.0
0.34400000000000025;9817499999.0;9817476196.0;23803.0;0.0;-4.710680716201663;6.138860716265864;0.0;0.0;0.0
0.34800000000000025;9817499999.0;9817487183.0;12816.0;0.0;1.779546733893454;-1.0105867338941028;0.0;0.0;0.0
0.35200000000000026;9817499999.0;9817487183.0;12816.0;0.0;2.2082769936695694;-1.439316993670218;0.0;0.0;0.0
0.35600000000000026;9817499999.0;9817487183.0;12816.0;0.0;0.08667442532628775;0.6822855746730636;0.0;83.33333333333333;-83.33333333333333
0.36000000000000026;9817499999.0;9817492676.0;7323.0;0.0;1.326925529666245;-0.8875455296607471;0.0;0.0;0.0
0.36400000000000027;9817499999.0;9817492676.0;7323.0;0.0;0.2867630742043257;0.1526169258011723;0.0;0.0;0.0
0.36800000000000027;9817499999.0;9817492676.0;7323.0;0.0;0.03195979148894548;0.4074202085165525;0.0;-83.33333333333333;83.33333333333333
0.3720000000000003;9817499999.0;9817509155.0;-9156.0;0.0;1.9432224074080586;-2.4925824073841207;0.0;166.66666666666666;-166.66666666666666
0.3760000000000003;9817499999.0;9817509155.0;-9156.0;0.0;0.25472559984773396;-0.8040855998237959;0.0;0.0;0.0
0.3800000000000003;9817499999.0;9817503662.0;-3663.0;0.0;-2.7962511588931083;2.576471158842772;0.0;0.0;0.0
0.3840000000000003;9817499999.0;9817503662.0;-3663.0;0.0;-0.5565974856168032;0.3368174855664671;0.0;-250.0;250.0
0.3880000000000003;9817499999.0;9817509155.0;-9156.0;0.0;-0.02504231920838356;-0.5243176807676784;0.0;83.33333333333333;-83.33333333333333
0.3920000000000003;9817499999.0;9817503662.0;-3663.0;0.0;-0.4297760965526104;0.2099960965022743;0.0;-83.33333333333333;83.33333333333333
0.3960000000000003;9817499999.0;9817503662.0;-3663.0;0.0;-0.18487352697551251;-0.034906473074823585;0.0;83.33333333333333;-83.33333333333333
0.4000000000000003;9817499999.0;9817509155.0;-9156.0;0.0;2.2300613627061248;-2.7794213626821866;0.0;-83.33333333333333;83.33333333333333
0.4040000000000003;9817499999.0;9817503662.0;-3663.0;0.0;0.09658356764912605;-0.31636356769946217;0.0;83.33333333333333;-83.33333333333333
0.4080000000000003;9817499999.0;9817503662.0;-3663.0;0.0;0.243667558118701;-0.4634475581690371;0.0;0.0;0.0
0.4120000000000003;9817499999.0;9817509155.0;-9156.0;0.0;2.846404280461371;-3.395764280437433;0.0;0.0;0.0
0.4160000000000003;9817499999.0;9817509155.0;-9156.0;0.0;0.22895311293751003;-0.7783131129135719;0.0;83.33333333333333;-83.33333333333333
0.4200000000000003;9817499999.0;9817503662.0;-3663.0;0.0;-0.6285558008700609;0.4087758008197248;0.0;-83.33333333333333;83.33333333333333
0.4240000000000003;9817553466.0;9817509155.0;-9156.0;13.366505195520627;2.6124412287324668;-3.1618012287085286;3341.626298880157;0.0;3341.626298880157
0.4280000000000003;9817558231.0;9817503662.0;17536.0;1.191253723236386;-1.6202786893695593;7.97204914772298;-3043.81286807106;0.0;-3043.81286807106
0.43200000000000033;9817568874.0;9817531128.0;23914.0;2.66081459598255;7.716735606752336;2.1789932519748563;367.39021818654106;166.66666666666666;200.7235515198744
0.43600000000000033;9817593264.0;9817531128.0;31295.0;6.097601731459328;6.172187900766731;-2.4492368892533136;859.1967838691944;83.33333333333333;775.863450535861
0.44000000000000034;9817636739.0;9817547607.0;30875.0;10.868741413839109;12.279617880553007;-6.412281593472911;1192.7849205949453;0.0;1192.7849205949453
0.44400000000000034;9817697940.0;9817542114.0;68244.0;15.30015033059491;4.544579852700234;7.519206789142557;1107.8522291889503;83.33333333333333;1024.518895855617
0.44800000000000034;9817772302.0;9817558594.0;102156.0;18.590502548809365;3.764852940492332;14.962276971478946;822.5880545536137;166.66666666666666;655.9213878869471
0.45200000000000035;9817854635.0;9817608032.0;119033.0;20.58337751061331;14.707734499633313;9.013003787114995;498.21874045098633;416.6666666666667;81.55207378431967
0.45600000000000035;9817939859.0;9817690430.0;114080.0;21.305968022950537;23.461987339019775;2.744179585920744;180.6476280843068;1166.6666666666667;-986.0190385823599
0.46000000000000035;9818023694.0;9817772827.0;115115.0;20.958723081214718;21.86703654272109;5.898059813801275;-86.81123543395498;1583.3333333333333;-1670.1445687672883
0.46400000000000036;9818103836.0;9817866211.0;106388.0;20.035523289398512;25.28462994282693;2.262706957694249;-230.79994795405145;1250.0;-1480.7999479540515
0.46800000000000036;9818176708.0;9817954102.0;100876.0;18.217953748571954;19.8960662304014;6.751217196638304;-454.3923852066394;750.0;-1204.3923852066393
0.47200000000000036;9818234730.0;9818036499.0;95760.0;14.505483479129227;21.91338018035889;3.1525145593576624;-928.1175673606818;-333.3333333333333;-594.7842340273486
0.47600000000000037;9818272977.0;9818135376.0;63910.0;9.561807370847134;19.88351086844504;0.7077562471320249;-1235.919027070523;416.6666666666667;-1652.5856937371898
0.48000000000000037;9818290394.0;9818179321.0;70233.0;4.354205112589177;12.73097355555743;4.050152347075951;-1301.9005645644893;-833.3333333333334;-468.56723123115586
0.4840000000000004;9818284906.0;9818217773.0;61885.0;-1.37191885752777;10.85451557867229;0.38462571772236664;-1431.530992529237;-750.0;-681.5309925292369
0.4880000000000004;9818256835.0;9818217773.0;70342.0;-7.017914069844835;1.5398731961101293;4.795046527471274;-1411.4988030792663;-1666.6666666666667;255.16786358740052
0.4920000000000004;9818209858.0;9818217773.0;56034.0;-11.744206740910027;0.6700628327056766;-0.8849390655913276;-1181.573167766298;-1333.3333333333333;151.7601655670353
0.4960000000000004;9818146809.0;9818206787.0;31586.0;-15.762204036408146;-0.43782728957384826;-6.525745972835221;-1004.4993238745299;-916.6666666666666;-87.83265720786326
0.5000000000000003;9818070561.0;9818190308.0;-5174.0;-19.061970403905793;-3.8300881398543716;-9.789938626372635;-824.9415918744116;-583.3333333333334;-241.60825854107827
0.5040000000000003;9817986493.0;9818151855.0;-34909.0;-21.016941547584647;-10.211530301295221;-8.929976587980422;-488.7427859197135;-416.6666666666667;-72.07611925304685
0.5080000000000003;9817900116.0;9818113403.0;-75728.0;-21.594435942697668;-13.374280997425318;-10.987150349991142;-144.37359877825529;-583.3333333333334;438.95973455507806
0.5120000000000003;9817812163.0;9818080444.0;-127706.0;-21.98802679961755;-6.915041427105665;-21.9817727158026;-98.39771422997057;-750.0;651.6022857700294
0.5160000000000003;9817722895.0;9818052979.0;-187230.0;-22.317141288724837;-7.2551673659309746;-25.725737445515833;-82.2786222768217;0.0;-82.2786222768217
0.5200000000000004;9817639931.0;9818003540.0;-226256.0;-20.741038223338755;-9.713926521539689;-25.97764283418988;394.0257663465205;-166.66666666666666;560.6924330131872
0.5240000000000004;9817573814.0;9817954102.0;-263579.0;-16.529146026616363;-11.625095280818641;-25.87995736391008;1052.973049180598;-83.33333333333333;1136.3063825139313
0.5280000000000004;9817499999.0;9817888184.0;-273982.0;-18.453667217580445;-14.054182248219847;-21.46506150890705;-481.13029774102057;-750.0;268.86970225897943
0.5320000000000004;9817499999.0;9817833252.0;-288318.0;0.0;-12.43358750089258;-22.182360163016867;4613.416804395111;-250.0;4863.416804395111
0.5360000000000004;9817499999.0;9817783813.0;-283382.0;0.0;-11.692740984268486;-16.435979028672055;0.0;-166.66666666666666;166.66666666666666
0.5400000000000004;9817499999.0;9817756348.0;-256349.0;0.0;0.4780458890795708;-15.967112845340424;0.0;250.0;-250.0
0.5440000000000004;9817499999.0;9817739868.0;-239869.0;0.0;-5.433187432512641;-8.95895256747275;0.0;1083.3333333333333;-1083.3333333333333
0.5480000000000004;9817499999.0;9817739868.0;-239869.0;0.0;-0.6855909726545215;-13.706549027330869;0.0;916.6666666666666;-916.6666666666666
0.5520000000000004;9817499999.0;9817728882.0;-228883.0;0.0;-1.749650675714016;-11.98332932428367;0.0;916.6666666666666;-916.6666666666666
0.5560000000000004;9817499999.0;9817728882.0;-228883.0;0.0;-0.09793290509283543;-13.63504709490485;0.0;83.33333333333333;-83.33333333333333
0.5600000000000004;9817499999.0;9817728882.0;-228883.0;0.0;3.1934495739489797;-16.926429573946663;0.0;83.33333333333333;-83.33333333333333
0.5640000000000004;9817499999.0;9817717896.0;-217897.0;0.0;-0.5026289224475622;-12.571191077562416;0.0;0.0;0.0
0.5680000000000004;9817499999.0;9817712402.0;-212403.0;-8.515934755133369e-10;-2.219102711156011;-10.5250772888511;-2.1289836887833425e-07;0.0;-2.1289836887833425e-07
