Zeit[sec];Sollposition[°];Istposition[°];Positionsschleppfehler[°];Sollgeschwindigkeit[°/s];Istgeschwindigkeit[°/s];Geschwindigkeitsdifferenz[°/s];Sollbeschleunigung[°/s*s];Istbeschleunigung[°/s*s];Beschleunigungsdifferenz[°/s*s]
0.0;-9979199999.0;-9979200439.0;440.0;0.0;-2.0964592704847456;2.1228592705095;0.0;0.0;0.0
0.004;-9979199999.0;-9979200439.0;440.0;0.0;0.18433856167644264;-0.15793856165168785;0.0;-83.33333333333333;83.33333333333333
0.008;-9979199999.0;-9979194946.0;-5053.0;0.0;2.3365507857501506;-2.639730785802765;0.0;0.0;0.0
0.012;-9979199999.0;-9979205933.0;5934.0;0.0;-3.250714833945036;3.606754833961599;0.0;0.0;0.0
0.016;-9979199999.0;-9979200439.0;440.0;0.0;-0.01463198433816433;0.041031984362919105;0.0;83.33333333333333;-83.33333333333333
0.02;-9979199999.0;-9979194946.0;-5053.0;0.0;0.37063690718263387;-0.6738169072352487;0.0;83.33333333333333;-83.33333333333333
0.024;-9979199999.0;-9979200439.0;440.0;0.0;-0.06795342014729977;0.09435342017205454;0.0;-83.33333333333333;83.33333333333333
0.028;-9979199999.0;-9979200439.0;440.0;0.0;-1.124909081093967;1.1513090811187219;0.0;0.0;0.0
0.032;-9979199999.0;-9979200439.0;440.0;0.0;-0.5595839402228594;0.5859839402476141;0.0;-83.33333333333333;83.33333333333333
0.036000000000000004;-9979199999.0;-9979200439.0;440.0;0.0;1.1312855279371143;-1.1048855279123595;0.0;83.33333333333333;-83.33333333333333
0.04000000000000001;-9979199999.0;-9979205933.0;5934.0;8.656197209923802e-10;-2.846779301673174;3.202819301689737;2.1640493024809505e-07;0.0;2.1640493024809505e-07
0.04400000000000001;-9979199999.0;-9979205933.0;5934.0;5.770798139949201e-10;-0.9490587319508195;1.3050987323105872;-7.213497674936503e-08;0.0;-7.213497674936503e-08
0.048000000000000015;-9979304671.0;-9979194946.0;-5053.0;-26.167945640174832;0.7482752337753773;-1.0514552330818459;-6541.9864101879775;83.33333333333333;-6625.3197435213115
0.05200000000000002;-9979400468.0;-9979205933.0;-35566.0;-23.94920052652666;-0.6498505113050341;-11.859291060481171;554.686278412043;-166.66666666666666;721.3529450787097
0.05600000000000002;-9979520253.0;-9979233398.0;-108642.0;-29.946283696542796;-11.323715579114854;-20.32972448478067;-1499.270792504034;-83.33333333333333;-1415.9374591707008
0.060000000000000026;-9979649292.0;-9979260864.0;-186536.0;-32.259754398309354;-6.318923754759133;-31.213187003989248;-578.3676754416396;-833.3333333333334;254.96565789169378
0.06400000000000003;-9979781584.0;-9979304810.0;-265903.0;-33.0729671373854;-11.868275339670479;-34.91430418289035;-203.30318476901078;-416.6666666666667;213.3634818976559
0.06800000000000003;-9979917921.0;-9979365234.0;-335754.0;-34.084256781536666;-17.272289461776616;-35.44157558871633;-252.82241103781723;-916.6666666666666;663.8442556288494
0.07200000000000004;-9980055343.0;-9979453125.0;-381739.0;-34.355469649559836;-19.752326098129153;-36.62117666336299;-67.8032170057925;-916.6666666666666;848.8634496608742
0.07600000000000004;-9980183688.0;-9979573975.0;-397633.0;-32.0862199079896;-27.70653977996111;-30.33730314072255;567.3124353925587;-1583.3333333333333;2150.645768725892
0.08000000000000004;-9980294171.0;-9979700317.0;-405108.0;-27.620852074125477;-33.08422030632198;-24.676418139856352;1116.3419584660312;-1416.6666666666667;2533.008625132698
0.08400000000000005;-9980378353.0;-9979799194.0;-427547.0;-21.045453251763718;-22.267208281747997;-33.714679436676924;1643.8497055904397;-833.3333333333334;2477.183038923773
0.08800000000000005;-9980420959.0;-9979865112.0;-461788.0;-10.651443816585306;-19.4534512507841;-33.29380219562188;2598.502358794603;750.0;1848.5023587946027
0.09200000000000005;-9980412156.0;-9979947510.0;-447242.0;2.2006896455797698;-20.579791106581688;-23.21764753804824;3213.033365541269;916.6666666666666;2296.366698874602
0.09600000000000006;-9980356010.0;-9979963989.0;-453229.0;14.036504899162509;-3.582619068533182;-29.22779704394855;2958.953813395685;1333.3333333333333;1625.6204800623516
0.10000000000000006;-9980262636.0;-9979980469.0;-409477.0;23.34351662364859;-3.883105773843825;-13.86741423666299;2326.7529311215203;1250.0;1076.7529311215203
0.10400000000000006;-9980143323.0;-9979969482.0;-349835.0;29.828346664204044;3.2800766984075307;-6.612937552542199;1621.2075101388637;1500.0;121.20751013886365
0.10800000000000007;-9980009162.0;-9979953003.0;-262873.0;33.540263366048784;5.762749146915972;4.324987990523814;927.9791754611848;1416.6666666666667;-488.68749120548193
0.11200000000000007;-9979868885.0;-9979936523.0;-154305.0;35.06917989684229;6.372172388955951;15.631594197862595;382.2291326983773;416.6666666666667;-34.43753396828936
0.11600000000000008;-9979727568.0;-9979909058.0;-45272.0;35.32910357290877;8.906849761590362;22.501535607732897;64.98091901661951;416.6666666666667;-351.6857476500472
0.12000000000000008;-9979591640.0;-9979887085.0;73409.0;33.98218539355956;6.182121741078794;33.385695336748014;-336.72954483730246;250.0;-586.7295448373025
0.12400000000000008;-9979473152.0;-9979843140.0;168638.0;29.621897063342036;11.033702451892198;33.87812611821979;-1090.0720825543813;416.6666666666667;-1506.738749221048
0.12800000000000009;-9979381163.0;-9979810181.0;264724.0;22.99716473796712;10.905230554163456;37.23950074467325;-1656.1830813437296;250.0;-1906.1830813437296
0.1320000000000001;-9979316629.0;-9979766235.0;328862.0;16.133577052895177;12.59270548055321;34.15985729173555;-1715.8969212679854;333.3333333333333;-2049.230254601319
0.1360000000000001;-9979277318.0;-9979744263.0;388149.0;9.82790520661731;5.045701626434922;38.55791462906881;-1576.4179615694668;83.33333333333333;-1659.7512949028003
0.1400000000000001;-9979258866.0;-9979733276.0;431856.0;4.6129264399965;5.313754637822509;34.27129838822452;-1303.7446916552021;-500.0;-803.7446916552022
0.1440000000000001;-9979254396.0;-9979738770.0;468539.0;1.1174860678883873;-2.290776927493513;38.200311833168456;-873.8600930270283;-666.6666666666666;-207.19342636036166
0.1480000000000001;-9979256885.0;-9979749756.0;492555.0;-0.622266821092488;-1.3555814646929503;34.16647692962051;-434.9382222452188;-1000.0;565.0617777547811
0.1520000000000001;-9979261208.0;-9979760742.0;505333.0;-1.0808433775174249;-2.6163773505538703;33.384539677614015;-114.64413910623422;-333.3333333333333;218.68919422709908
0.1560000000000001;-9979264695.0;-9979777222.0;518638.0;-0.8716530754436219;-9.196445835962892;39.520834440104096;52.29757551845074;-166.66666666666666;218.9642421851174
0.16000000000000011;-9979266597.0;-9979766235.0;503670.0;-0.47542593229872504;0.11179951391369104;29.11318476681717;99.05678578622422;83.33333333333333;15.723452452890891
0.16400000000000012;-9979267204.0;-9979777222.0;511793.0;-0.1519000471111688;-2.581880448743701;32.57367952005016;80.88147129688906;166.66666666666666;-85.7851953697776
0.16800000000000012;-9979267114.0;-9979755249.0;488423.0;0.022622450016523913;2.951669787682593;26.004235595012766;43.63062428192318;166.66666666666666;-123.03604238474348
0.17200000000000013;-9979266819.0;-9979733276.0;466112.0;0.07374485226690795;3.8514338722601535;24.030685864325577;12.78060056259601;500.0;-487.219399437404
0.17600000000000013;-9979266586.0;-9979700317.0;433320.0;0.05816817052322328;10.936200774252415;15.1048683166398;-3.894170435921168;333.3333333333333;-337.2275037692545
0.18000000000000013;-9979266492.0;-9979678345.0;411618.0;0.02349278274835719;3.9240290898010137;20.84032030627585;-8.668846943716524;500.0;-508.6688469437165
0.18400000000000014;-9979266510.0;-9979634399.0;367850.0;-0.004435568755801989;8.205074216075241;13.910436974651772;-6.982087876039794;333.3333333333333;-340.3154212093731
0.18800000000000014;-9979266583.0;-9979595947.0;329447.0;-0.01827019715886744;8.022319746397436;11.757123057485444;-3.4586571007663625;500.0;-503.45865710076635
0.19200000000000014;-9979266666.0;-9979562988.0;296449.0;-0.02076769356531131;9.326619459316134;8.450563400691859;-0.6243741016109675;-83.33333333333333;82.70895923172236
0.19600000000000015;-9979266736.0;-9979562988.0;296373.0;-0.017561083214669922;1.3387140587717294;16.424486588111577;0.8016525876603465;-333.3333333333333;334.13498592099364
0.20000000000000015;-9979266789.0;-9979530029.0;263336.0;-0.013186531415920874;5.90921171810478;9.871466592990979;1.0936379496872621;-500.0;501.09363794968726
0.20400000000000015;-9979266829.0;-9979530029.0;263272.0;-0.009943380948537146;1.1385766509175301;14.641897918568644;0.8107876168459318;-333.3333333333333;334.14412095017923
0.20800000000000016;-9979266862.0;-9979513550.0;246746.0;-0.008323131844257842;5.408382661767304;9.384451033210754;0.40506227606982614;-250.0;250.40506227606983
0.21200000000000016;-9979266894.0;-9979497070.0;230228.0;-0.007893838996688045;2.4977108226791023;11.306649197026935;0.10732321189244921;166.66666666666666;-166.55934345477422
0.21600000000000016;-9979266926.0;-9979491577.0;224703.0;-0.008018728878793385;-0.47324350976198915;13.9472610921035;-0.03122247052633493;-83.33333333333333;83.302110862807
0.22000000000000017;-9979266959.0;-9979469604.0;202698.0;-0.00822615213881646;3.038828392237425;9.11510573643882;-0.051855815005768996;250.0;-250.05185581500578
0.22400000000000017;-9979266992.0;-9979447632.0;180693.0;-0.008294387210182849;8.010251772418618;2.8232279903662594;-0.01705876784159708;-333.3333333333333;333.3162745654917
0.22800000000000017;-9979267025.0;-9979425659.0;158687.0;-0.00818847863731943;9.344988633006812;0.167979376091413;0.02647714321585455;250.0;-249.97352285678414
0.23200000000000018;-9979267056.0;-9979403687.0;136682.0;-0.007962123985458343;6.409960689842701;1.782707313883372;0.05658866296527187;166.66666666666666;-166.61007800370137
0.23600000000000018;-9979267087.0;-9979392700.0;125663.0;-0.007683723082252866;1.7520753177329897;5.779605329149438;0.06960022580136932;250.0;-249.93039977419863
0.24000000000000019;-9979267117.0;-9979370728.0;103660.0;-0.007400938969320191;2.769856270827353;3.441890660412817;0.0706960282331687;-166.66666666666666;166.73736269489982
0.2440000000000002;-9979267145.0;-9979332275.0;65176.0;-0.007134548251203577;7.26685602221638;-3.363869257091387;0.06659767952915349;166.66666666666666;-166.6000689871375
0.2480000000000002;-9979267173.0;-9979304810.0;37682.0;-0.006886445769472276;7.856827860862017;-5.603204837014914;0.06202562043282518;83.33333333333333;-83.27130771290051
0.25200000000000017;-9979267199.0;-9979293823.0;26667.0;-0.006650209779956153;2.704463050559163;-1.1114807909668123;0.05905899737903078;166.66666666666666;-166.60760766928763
0.25600000000000017;-9979267225.0;-9979271851.0;4668.0;-0.0064185924487313376;2.908596639946103;-2.6353108754621943;0.05790433280620393;-250.0;250.0579043328062
0.2600000000000002;-9979267250.0;-9979249878.0;-17331.0;-0.006186840080830047;7.1793501289412385;-8.22576989024024;0.05793809197532254;-250.0;250.05793809197533
0.2640000000000002;-9979267274.0;-9979233398.0;-33837.0;-0.005953056103443589;2.8362247144132855;-4.872772777778117;0.05844599434661466;83.33333333333333;-83.27488733898672
0.2680000000000002;-9979267297.0;-9979222412.0;-44847.0;-0.005717231571834843;4.129319745630026;-6.826235251957023;0.05895613290218642;-333.3333333333333;333.3922894662355
0.2720000000000002;-9979267318.0;-9979211426.0;-55857.0;-0.005480121594940425;2.570839018136263;-5.928119943312975;0.059277494223604475;83.33333333333333;-83.27405583910972
0.2760000000000002;-9979267339.0;-9979194946.0;-72359.0;-0.005242492823293224;4.264991920523346;-8.612156523461287;0.059407192911800286;-333.3333333333333;333.3927405262451
0.2800000000000002;-9979267359.0;-9979178467.0;-88859.0;-0.005004821347739789;3.9701650378257036;-9.307092332583451;0.05941786888835881;250.0;-249.94058213111165
0.2840000000000002;-9979267379.0;-9979151001.0;-116346.0;-0.004767279715144502;8.190133656270802;-15.176043308462525;0.05938540814882172;0.0;0.05938540814882172
0.2880000000000002;-9979267397.0;-9979145508.0;-121859.0;-0.004529854364131735;3.3586794732660055;-10.675131505671978;0.059356337753191726;83.33333333333333;-83.27397699558014
0.2920000000000002;-9979267414.0;-9979140015.0;-127371.0;-0.004292463926447714;1.053625941209495;-8.700560477439597;0.05934760942100516;-166.66666666666666;166.72601427608765
0.2960000000000002;-9979267430.0;-9979123535.0;-143869.0;-0.004055031361937272;2.5156450863033535;-11.152222210196626;0.05935814112761049;-83.33333333333333;83.39269147446093
0.3000000000000002;-9979267445.0;-9979129028.0;-138392.0;-0.0038175145437739874;-0.7642177325487137;-7.543501984007568;0.05937920454082127;-166.66666666666666;166.72604587120748
0.3040000000000002;-9979267460.0;-9979134521.0;-132915.0;-0.0035798999105822304;-1.8340130566805601;-6.144849194160679;0.05940365829793925;-250.0;250.05940365829795
0.3080000000000002;-9979267473.0;-9979134521.0;-132930.0;-0.0033421966956390247;-1.6104479763656856;-6.369076719401256;0.05942580373580143;-250.0;250.0594258037358
0.3120000000000002;-9979267485.0;-9979134521.0;-132944.0;-0.003104416152000743;-0.4800417139232159;-7.500085332641771;0.05944513590957037;-83.33333333333333;83.3927784692429
0.3160000000000002;-9979267497.0;-9979140015.0;-127463.0;-0.002866571841043016;-1.1068219124600291;-6.544207400753317;0.059461077739431774;0.0;0.059461077739431774
0.32000000000000023;-9979267507.0;-9979151001.0;-116489.0;-0.0026286692450240754;0.8926980624049902;-7.8850495703100645;0.059475649004735176;-166.66666666666666;166.72614231567138
0.32400000000000023;-9979267517.0;-9979167480.0;-100021.0;-0.002390715577441596;-2.9148959855511785;-3.089137655172919;0.05948841689561982;-166.66666666666666;166.72615508356228
0.32800000000000024;-9979267526.0;-9979183960.0;-83551.0;-0.002152711415375392;-4.286659095652402;-0.7289366227431948;0.05950104051655105;-166.66666666666666;166.7261677071832
0.33200000000000024;-9979267533.0;-9979205933.0;-61588.0;-0.0019146599327644408;-5.768008347272873;2.07043060244517;0.0595128706527378;-250.0;250.05951287065272
0.33600000000000024;-9979267540.0;-9979200439.0;-67090.0;-0.0016765634379279977;3.4913124006912115;-7.518772122890669;0.059524123709110754;-83.33333333333333;83.39285745704244
0.34000000000000025;-9979267546.0;-9979233398.0;-34138.0;-0.001438426258964668;-7.199481099031866;5.149379445892485;0.05953429474083241;83.33333333333333;-83.2737990385925
0.34400000000000025;-9979267550.0;-9979244385.0;-23157.0;-0.0012002495500340795;-2.51296381932497;1.1219602784373544;0.05954417723264715;83.33333333333333;-83.27378915610068
0.34800000000000025;-9979267554.0;-9979260864.0;-6684.0;-0.0009620376392348375;-5.984489545851946;5.5821041575616555;0.0595529776998105;83.33333333333333;-83.27378035563352
0.35200000000000026;-9979267557.0;-9979277344.0;9792.0;-0.0007237945661256396;-3.6260862476304174;4.212499049916973;0.059560768277299475;-250.0;250.0595607682773
0.35600000000000026;-9979267559.0;-9979304810.0;37255.0;-0.000485523504645463;-4.87978346888721;7.114214495099148;0.059567765370044136;-83.33333333333333;83.39290109870338
0.36000000000000026;-9979267560.0;-9979321289.0;53731.0;-0.00024722734019337774;-4.995228076450527;8.21845735672323;0.05957404111302132;-83.33333333333333;83.39290737444635
0.36400000000000027;-9979267560.0;-9979343262.0;75703.0;-8.90982378817457e-06;-6.430340107060969;10.972127668285822;0.05957937910130079;0.0;0.05957937910130079
0.36800000000000027;-9979267559.0;-9979370728.0;103168.0;0.00022942529355135543;-7.97451718942076;14.164443054892295;0.0595837793348825;0.0;0.0595837793348825
0.3720000000000003;-9979267557.0;-9979392700.0;125141.0;0.0004677757035059563;-10.450463847860695;17.959008037787438;0.05958760248865022;-83.33333333333333;83.39292093582198
0.3760000000000003;-9979267555.0;-9979398193.0;130636.0;0.0007061365008972089;-2.3204015566781164;10.158884087727099;0.05959019934781315;-83.33333333333333;83.39292353268114
0.3800000000000003;-9979267551.0;-9979414673.0;147118.0;0.0009445053774058578;-4.677933904506266;13.50557478990023;0.05959221912716221;250.0;-249.94040778087285
0.3840000000000003;-9979267546.0;-9979414673.0;147120.0;0.0011828794476328325;2.0028577578216793;6.825141491479432;0.05959351755674368;0.0;0.05959351755674368
0.3880000000000003;-9979267540.0;-9979431152.0;163604.0;0.001421254094939621;-3.0933018725663426;12.910579492906402;0.05959366182669716;500.0;-499.9404063381733
0.3920000000000003;-9979267534.0;-9979436646.0;169103.0;0.0016596255683074327;-4.345625162780285;14.49308115736844;0.05959286834195289;83.33333333333333;-83.27374046499138
0.3960000000000003;-9979267526.0;-9979420166.0;152629.0;0.0018979930021165465;3.6678604733869435;5.4913938946193;0.059591858452278455;333.3333333333333;-333.27374147488104
0.4000000000000003;-9979267518.0;-9979414673.0;147143.0;0.002136349759949101;0.22510633265972138;8.605226405183812;0.05958918945813866;333.3333333333333;-333.27374414387515
0.4040000000000003;-9979267508.0;-9979409180.0;141658.0;0.00237469555326519;4.12919395724684;4.3722771438212;0.05958644832902227;83.33333333333333;-83.2737468850043
0.4080000000000003;-9979267498.0;-9979392700.0;125187.0;0.0026130240341868593;4.970129747129977;2.543319706325585;0.059582120230417285;250.0;-249.94041787976957
0.4120000000000003;-9979267486.0;-9979403687.0;136184.0;0.0028513346256342944;-0.7752439210042358;8.948751713497824;0.05957764786185878;-333.3333333333333;333.3929109811952
0.4160000000000003;-9979267474.0;-9979403687.0;136195.0;0.003089620979729542;0.9591812807992101;7.2152248332121625;0.05957158852381184;0.0;0.05957158852381184
0.4200000000000003;-9979267461.0;-9979398193.0;130713.0;0.00332788223085288;0.9589113491699099;6.886813066017448;0.05956531278083457;-166.66666666666666;166.7262319794475
0.4240000000000003;-9979267446.0;-9979414673.0;147205.0;0.0035661143394456127;-5.492201158553362;14.32768385016545;0.059558027148183146;-83.33333333333333;83.39289136048151
0.4280000000000003;-9979267431.0;-9979409180.0;141726.0;0.0038043129774091326;-0.19165301777422428;8.698633959270476;0.05954965949087998;-83.33333333333333;83.39288299282421
0.43200000000000033;-9979267415.0;-9979409180.0;141741.0;0.004042475259344371;-2.2255892815142873;10.73370844198238;0.05954057048380957;83.33333333333333;-83.27379276284952
0.43600000000000033;-9979267398.0;-9979387207.0;119783.0;0.0042805991654719785;3.724867115236819;3.466010229736159;0.05953097653190191;250.0;-249.9404690234681
0.44000000000000034;-9979267380.0;-9979359741.0;92334.0;0.004518679213533723;9.326584262400866;-3.782408770103679;0.05952001201543614;333.3333333333333;-333.2738133213179
0.44400000000000034;-9979267361.0;-9979354248.0;86858.0;0.004756713383750255;3.1942795728221536;2.02157402613931;0.05950854255413292;166.66666666666666;-166.60715812411252
0.44800000000000034;-9979267341.0;-9979337769.0;70397.0;0.004994696482403248;3.636576114408672;0.591855546557762;0.05949577466324838;83.33333333333333;-83.27383755867008
0.45200000000000035;-9979267320.0;-9979304810.0;37458.0;0.005232627643872982;10.457387383915485;-8.205057708702244;0.05948279036743342;83.33333333333333;-83.27385054296589
0.45600000000000035;-9979267298.0;-9979277344.0;10012.0;0.00547050167444113;10.009231444872915;-9.403423806789082;0.059468507642036934;250.0;-249.94053149235796
0.46000000000000035;-9979267275.0;-9979260864.0;-6446.0;0.005708316554328343;7.2164803499132395;-7.597914803105037;0.059453719971803425;166.66666666666666;-166.60721294669486
0.46400000000000036;-9979267251.0;-9979244385.0;-22903.0;0.005946067089816297;4.4721846835017205;-5.840801285748242;0.059437633871988395;83.33333333333333;-83.27389569946133
0.46800000000000036;-9979267227.0;-9979222412.0;-44853.0;0.006183751838205453;8.358850119873882;-11.04422893245057;0.059421187097289094;-416.6666666666667;416.726087853764
0.47200000000000036;-9979267201.0;-9979216919.0;-50322.0;0.006421365894317396;2.560743631720543;-5.574024719383139;0.05940351402798573;0.0;0.05940351402798573
0.47600000000000037;-9979267174.0;-9979189453.0;-77763.0;0.006658906661292963;6.755543568067253;-11.415046998571707;0.05938519174389172;-83.33333333333333;83.39271852507721
