Zeit[sec];Sollposition[°];Istposition[°];Positionsschleppfehler[°];Sollgeschwindigkeit[°/s];Istgeschwindigkeit[°/s];Geschwindigkeitsdifferenz[°/s];Sollbeschleunigung[°/s*s];Istbeschleunigung[°/s*s];Beschleunigungsdifferenz[°/s*s]
0.0;-9979199999.0;-9979194946.0;-5053.0;0.0;1.5588759029433132;-1.862055902995928;0.0;-83.33333333333333;83.33333333333333
0.004;-9979199999.0;-9979205933.0;5934.0;0.0;-2.654164011836052;3.0102040118526148;0.0;166.66666666666666;-166.66666666666666
0.008;-9979199999.0;-9979194946.0;-5053.0;0.0;-0.6149726475775242;0.3117926475249094;0.0;-83.33333333333333;83.33333333333333
0.012;-9979199999.0;-9979211426.0;11427.0;0.0;-4.804587816759944;5.490207816715377;0.0;-166.66666666666666;166.66666666666666
0.016;-9979199999.0;-9979211426.0;11427.0;0.0;-5.616326002128423;6.301946002083856;0.0;0.0;0.0
0.02;-9979199999.0;-9979200439.0;440.0;0.0;-0.474131795078516;0.5005317951032707;0.0;-83.33333333333333;83.33333333333333
0.024;-9979199999.0;-9979200439.0;440.0;0.0;-1.5503501231223344;1.5767501231470893;0.0;166.66666666666666;-166.66666666666666
0.028;-9979199999.0;-9979189453.0;-10546.0;0.0;3.355038758456707;-3.987798758378943;0.0;0.0;0.0
0.032;-9979199999.0;-9979205933.0;5934.0;0.0;-4.185784164763987;4.54182416478055;0.0;0.0;0.0
0.036000000000000004;-9979199999.0;-9979189453.0;-10546.0;0.0;3.6552371699512007;-4.287997169873436;0.0;0.0;0.0
0.04000000000000001;-9979199999.0;-9979205933.0;5934.0;0.0;-3.3821747545599936;3.7382147545765565;0.0;0.0;0.0
0.04400000000000001;-9979199999.0;-9979194946.0;-5053.0;0.0;3.0274171817600726;-3.3305971818126876;0.0;0.0;0.0
0.048000000000000015;-9979200554.0;-9979189453.0;-10546.0;-0.13862877556412148;3.6790109955593944;-4.31177099548163;-34.65719389103037;83.33333333333333;-117.9905272243637
0.05200000000000002;-9979206080.0;-9979211426.0;11207.0;-1.381529024497895;-3.0217132893875243;3.639169145963274;-310.7250622334434;-166.66666666666666;-144.05839556677674
0.05600000000000002;-9979373666.0;-9979211426.0;8684.0;-41.89642947196078;-3.3275109249055386;3.217943898900918;-10128.72511186572;0.0;-10128.72511186572
0.060000000000000026;-9979679861.0;-9979211426.0;-61067.0;-76.54870481594122;-2.3661075495928525;-18.73568383833043;-8663.068835995111;-83.33333333333333;-8579.735502661777
0.06400000000000003;-9980248573.0;-9979244385.0;-249701.0;-142.1781220933084;-10.981927874386312;-59.39825533489471;-16407.354319341794;-83.33333333333333;-16324.020986008458
0.06800000000000003;-9981116697.0;-9979436646.0;-466906.0;-217.03087408701415;-55.66824439196289;-74.71281823894721;-18713.18799842644;-2000.0;-16713.18799842644
0.07200000000000004;-9982348165.0;-9980029907.0;-559531.0;-307.8669865160375;-162.5510553742051;-42.49232594348439;-22709.02810725584;-7666.666666666667;-15042.361440589173
0.07600000000000004;-9984096331.0;-9981183472.0;-416396.0;-437.04148293276165;-289.33001500114057;11.738871994097735;-32293.624104181035;-18500.0;-13793.624104181035
0.08000000000000004;-9986531746.0;-9982584229.0;-449841.0;-608.8538145667969;-350.85963068587336;-34.68124246165354;-42953.08290850882;-25083.333333333332;-17869.749575175487
0.08400000000000005;-9989804056.0;-9984347534.0;-704158.0;-818.0774471493505;-449.63612736099213;-97.01885868209212;-52305.9081456384;-24750.0;-27555.908145638397
0.08800000000000005;-9994038592.0;-9986907349.0;-907547.0;-1058.6339932014043;-652.4404376017228;-92.81338528407491;-60139.13651301345;-25916.666666666668;-34222.46984634679
0.09200000000000005;-9999351988.0;-9990274658.0;-1189152.0;-1328.3489898894306;-851.5187299818323;-132.05882925894957;-67428.74917200657;-35000.0;-32428.749172006577
0.09600000000000006;-10005849410.0;-9994614258.0;-1506201.0;-1624.3552343338783;-1103.848651519254;-150.68567256007418;-74001.56111111192;-47416.666666666664;-26584.89444444526
0.10000000000000006;-10013604775.0;-10000217285.0;-1679696.0;-1938.8411694205547;-1409.9786322820112;-134.93360712339563;-78621.4837716691;-59500.0;-19121.48377166909
0.10400000000000006;-10022668515.0;-10006918945.0;-1967275.0;-2265.934834245531;-1687.8498762658983;-177.49620589857068;-81773.41620624406;-66333.33333333333;-15440.082872910736
0.10800000000000007;-10033063613.0;-10014895020.0;-2257945.0;-2598.7745477360013;-2011.542735216029;-190.61997044324107;-83209.92837261758;-73000.0;-10209.928372617582
0.11200000000000007;-10044765741.0;-10024337769.0;-2399132.0;-2925.531734640468;-2362.471301403478;-177.46063417820778;-81689.2967261167;-78250.0;-3439.2967261167087
0.11600000000000008;-10057716679.0;-10035032959.0;-2609456.0;-3237.734327218983;-2700.3086525025815;-182.63714156372816;-78050.64814462866;-80833.33333333333;2782.6851887046614
0.12000000000000008;-10071839477.0;-10047183838.0;-2648180.0;-3530.6994318929205;-3039.778914615944;-166.51247692437937;-73241.27616848443;-86583.33333333333;13342.057164848895
0.12400000000000008;-10087034041.0;-10060521240.0;-2719023.0;-3798.6407068769645;-3326.495831945218;-188.70664963125228;-66985.31874601099;-84083.33333333333;17098.014587322337
0.12800000000000009;-10103177062.0;-10075001221.0;-2779912.0;-4035.7551781872753;-3640.972500448547;-161.0395879828834;-59278.617827577706;-79333.33333333333;20054.715505755623
0.1320000000000001;-10120130662.0;-10090574341.0;-2771125.0;-4238.39989493483;-3896.8933990216556;-160.45702240813534;-50661.17918688861;-74833.33333333333;24172.154146444725
0.1360000000000001;-10137751214.0;-10107026367.0;-2777944.0;-4405.137783150833;-4129.642629157618;-151.74531029109585;-41684.47205400071;-67000.0;25315.527945999293
0.1400000000000001;-10155891350.0;-10124401245.0;-2616353.0;-4535.033585838814;-4344.9457369668635;-115.35693397890918;-32473.95067199545;-64750.0;32276.04932800455
0.1440000000000001;-10174416540.0;-10142341919.0;-2498330.0;-4631.2974247317725;-4499.708289818138;-105.85396966275312;-24065.95972323953;-53583.333333333336;29517.373610093804
0.1480000000000001;-10193224792.0;-10160782471.0;-2347538.0;-4702.062643309706;-4602.527556863874;-110.76430875461301;-17691.304644483353;-46750.0;29058.695355516647
0.1520000000000001;-10212232911.0;-10179629517.0;-2135655.0;-4752.029501010661;-4716.404694072902;-70.52528818745941;-12491.714425238797;-34666.666666666664;22174.95224142787
0.1560000000000001;-10231364566.0;-10198789673.0;-1861337.0;-4782.913571746519;-4791.422661574364;-41.71664012900146;-7721.017683964419;-28750.0;21028.98231603558
0.16000000000000011;-10250559625.0;-10218081665.0;-1625273.0;-4798.764498021349;-4831.861385090932;-29.636772845980886;-3962.731568707568;-19916.666666666668;15953.9350979591
0.16400000000000012;-10269778563.0;-10237291260.0;-1571747.0;-4804.734438130938;-4816.535455375344;-66.78661961639136;-1492.4850273971515;-13000.0;11507.514972602849
0.16800000000000012;-10288999596.0;-10256753540.0;-1313623.0;-4805.257924775748;-4856.061886917323;-23.794102556057624;-130.87166120249094;-6833.333333333333;6702.461672130842
0.17200000000000013;-10308214029.0;-10276226807.0;-1059984.0;-4803.608146972323;-4867.123709340945;-1.382342947316829;412.44445085612824;-5250.0;5662.444450856128
0.17600000000000013;-10327420950.0;-10295617676.0;-887519.0;-4801.730024066038;-4838.829275027961;-19.02261132179683;469.5307265712927;-4583.333333333333;5052.864059904626
0.18000000000000013;-10346622708.0;-10315085449.0;-631239.0;-4800.43907676263;-4861.618285019614;20.870777767291656;322.73682585196184;-666.6666666666666;989.4034925186285
0.18400000000000014;-10365822048.0;-10334498291.0;-423315.0;-4799.834794564402;-4864.405358032323;37.777269774656816;151.0705495570619;916.6666666666666;-765.5961171096047
0.18800000000000014;-10385020865.0;-10353982544.0;-139892.0;-4799.704167956103;-4854.476833003186;45.87626054600787;32.656652074592785;-583.3333333333334;615.9899854079262
0.19200000000000014;-10404220031.0;-10373269043.0;-52540.0;-4799.7913083814665;-4827.623127355516;24.684183484248933;-21.78510634075792;1083.3333333333333;-1105.1184396740912
0.19600000000000015;-10423419708.0;-10392506104.0;-14437.0;-4799.918848317375;-4796.647945503965;-3.957757659532035;-31.884983977079173;2333.3333333333335;-2365.2183173104127
0.20000000000000015;-10442619733.0;-10411864014.0;144106.0;-4800.006191890991;-4842.183050817154;50.98804543231836;-21.835893404158924;5083.333333333333;-5105.169226737492
0.20400000000000015;-10461819895.0;-10431057129.0;137409.0;-4800.040194056301;-4813.340252965175;21.632061589788464;-8.500541327293831;1750.0;-1758.5005413272938
0.20800000000000016;-10481020049.0;-10450338135.0;218338.0;-4800.038159003958;-4818.572245371983;31.653363932497996;0.5087630856905889;1083.3333333333333;-1082.8245702476427
0.21200000000000016;-10500220137.0;-10469509277.0;189322.0;-4800.021897788696;-4799.590446884833;10.91057892635581;4.065303815423249;1000.0;-995.9346961845768
0.21600000000000016;-10519420162.0;-10488663940.0;143857.0;-4800.006047716256;-4766.941484916657;-24.458818693574358;3.962518110029123;750.0;-746.0374818899709
0.22000000000000017;-10538620149.0;-10507741699.0;21553.0;-4799.996450402281;-4769.50154664208;-29.22098212109813;2.3993284937660064;3750.0;-3747.600671506234
0.22400000000000017;-10557820122.0;-10526835938.0;-84219.0;-4799.993059933147;-4772.290087678939;-32.76538772373988;0.8476172833979945;2333.3333333333335;-2332.4857160499355
0.22800000000000017;-10577020097.0;-10546007080.0;-113058.0;-4799.99345886092;-4797.430716300346;-9.347926068096058;-0.09973194323720236;2333.3333333333335;-2333.4330652765707
0.23200000000000018;-10596220079.0;-10565101318.0;-218794.0;-4799.995211608128;-4784.341434786656;-28.779443181068928;-0.43818680182994285;-1083.3333333333333;1082.8951465315033
0.23600000000000018;-10615420067.0;-10584129639.0;-390451.0;-4799.996820408546;-4741.923244156391;-81.49796730392882;-0.4022001046450896;-416.6666666666667;416.2644665620216
0.24000000000000019;-10634620059.0;-10603081055.0;-639019.0;-4799.997744213493;-4746.067719527572;-92.2692596747329;-0.23095123674465867;3750.0;-3750.2309512367447
0.2440000000000002;-10653820052.0;-10622164307.0;-755757.0;-4799.998034134352;-4761.14146648258;-84.2011307737339;-0.07248021461236931;1333.3333333333333;-1333.4058135479456
0.2480000000000002;-10673020045.0;-10641406860.0;-713196.0;-4799.997957357922;-4814.296692387023;-28.492921362628294;0.01919410738082661;-333.3333333333333;333.35252744071414
0.25200000000000017;-10692220037.0;-10660479126.0;-840923.0;-4799.997763023986;-4782.353603995502;-68.09977799947956;0.04858348393099732;-4750.0;4750.048583483931
0.25600000000000017;-10711420028.0;-10679644775.0;-875267.0;-4799.997595962265;-4788.853155276366;-63.66074548096549;0.041765430296436534;-1416.6666666666667;1416.7084320969632
0.2600000000000002;-10730620019.0;-10698848877.0;-871156.0;-4799.997503029909;-4808.482483030185;-43.78457489498669;0.023233088995766593;-583.3333333333334;583.3565664223291
0.2640000000000002;-10749820010.0;-10718113403.0;-806621.0;-4799.9974738377505;-4799.249083524749;-49.14573657019719;0.007298039690795122;-2916.6666666666665;2916.6739647063573
0.2680000000000002;-10769020000.0;-10737454834.0;-665181.0;-4799.997479309044;-4849.729057511926;9.820705511808228;-0.0013678234154212987;-2166.6666666666665;2166.665298843251
0.2720000000000002;-10788219991.0;-10756796265.0;-523741.0;-4799.997494298692;-4846.052530533851;14.63059435582818;-0.003747411938093137;-4250.0;4249.996252588062
0.2760000000000002;-10807419982.0;-10776286011.0;-233985.0;-4799.997505077966;-4867.389994637601;53.353409417485636;-0.0026948184768116334;-2750.0;2749.997305181523
0.2800000000000002;-10826619973.0;-10795665894.0;-54093.0;-4799.997507818518;-4849.802658889897;46.55958040526821;-0.0006851380476291524;-4000.0;3999.9993148619524
0.2840000000000002;-10845819964.0;-10814979858.0;59880.0;-4799.99750414021;-4818.544495465376;22.139789364066928;0.000919576905289432;-250.0;250.0009195769053
0.2880000000000002;-10865019955.0;-10834447632.0;327663.0;-4799.997497193324;-4869.682190629423;89.34446428532556;0.0017367215150443371;1666.6666666666667;-1666.6649299451517
0.2920000000000002;-10884219946.0;-10853717651.0;397691.0;-4799.997489517586;-4804.935776800484;28.799735393080482;0.0019189346858183853;83.33333333333333;-83.33141439864751
0.2960000000000002;-10903419937.0;-10873042603.0;522652.0;-4799.997482407385;-4831.6896587284955;63.051284537687025;0.0017775500964489765;2416.6666666666665;-2416.66488911657
0.3000000000000002;-10922619928.0;-10892252197.0;532255.0;-4799.997476157034;-4813.842718198158;45.78053145465947;0.0015625878404534888;2250.0;-2249.9984374121595
0.3040000000000002;-10941819918.0;-10911483765.0;563832.0;-4799.997470553589;-4803.873400117203;37.70584014637279;0.0014008612652105512;3666.6666666666665;-3666.6652658054013
0.3080000000000002;-10961019909.0;-10930731812.0;611888.0;-4799.997465267538;-4811.250830186263;47.966636214358005;0.0013215126273280475;583.3333333333334;-583.332011820706
0.3120000000000002;-10980219900.0;-10949837036.0;517122.0;-4799.997460033424;-4769.580218092688;0.6100696021931071;0.0013085284535918618;833.3333333333334;-833.3320248048798
0.3160000000000002;-10999419891.0;-10969019165.0;499260.0;-4799.997454732368;-4803.284651651934;33.24278842871627;0.0013252640655991854;3083.3333333333335;-3083.332008069268
0.32000000000000023;-11018619881.0;-10988201294.0;481398.0;-4799.997449352254;-4808.659661001504;37.54608303920577;0.0013450285223370884;1000.0;-999.9986549714777
0.32400000000000023;-11037819872.0;-11007460327.0;540440.0;-4799.997443913853;-4813.130444043301;45.55939141305316;0.0013596002190752188;-666.6666666666666;666.6680262668857
0.32800000000000024;-11057019863.0;-11026598511.0;478634.0;-4799.997438449485;-4797.244826867453;25.965419639860556;0.0013660919648827985;-1583.3333333333333;1583.3346994252981
0.33200000000000024;-11076219853.0;-11045725708.0;405840.0;-4799.997432995503;-4761.951819570668;-13.695222208521955;0.0013634955848829122;-500.0;500.0013634955849
0.33600000000000024;-11095419844.0;-11064946289.0;426430.0;-4799.997427546716;-4803.616357531861;29.204721212769982;0.0013621968264487805;2250.0;-2249.9986378031736
0.34000000000000025;-11114619834.0;-11083787842.0;67993.0;-4799.997422123897;-4721.4236041892245;-74.49424667779476;0.0013557046258938499;3000.0;-2999.998644295374
0.34400000000000025;-11133819825.0;-11102832642.0;-87198.0;-4799.997416709734;-4760.236343682923;-44.992961745683715;0.0013535407106246566;5750.0;-5749.998646459289
0.34800000000000025;-11153019816.0;-11121882935.0;-236895.0;-4799.997411300187;-4773.580986179866;-40.63013382918143;0.0013523867892217822;2083.3333333333335;-2083.3319809465443
0.35200000000000026;-11172219806.0;-11141004639.0;-315182.0;-4799.99740590276;-4770.431370354369;-48.476964242184295;0.0013493568076228257;-2166.6666666666665;2166.668016023474
0.35600000000000026;-11191419797.0;-11160049438.0;-470374.0;-4799.997400508218;-4767.721160075449;-60.498689116358946;0.0013486355783243198;-2583.3333333333335;2583.334681968912
0.36000000000000026;-11210619787.0;-11179116211.0;-603591.0;-4799.99739512464;-4762.751542964138;-73.46132083142402;0.0013458943612931762;-1250.0;1250.0013458943613
0.36400000000000027;-11229819778.0;-11198243408.0;-676385.0;-4799.997389741639;-4794.91155743108;-45.66894097422119;0.0013457502063829452;1666.6666666666667;-1666.6653209164604
0.36800000000000027;-11249019768.0;-11217326660.0;-793123.0;-4799.997384369027;-4781.680229509749;-65.90454351215521;0.0013431531442620326;-1250.0;1250.0013431531443
0.3720000000000003;-11268219759.0;-11236519775.0;-799999.0;-4799.997379004493;-4792.127668461658;-55.86965918138412;0.0013411333839030704;-1416.6666666666667;1416.6680078000506
0.3760000000000003;-11287419749.0;-11255767822.0;-751942.0;-4799.997373643421;-4819.431729086205;-25.682173187289663;0.0013402679996943334;-3000.0;3000.0013402679997
0.3800000000000003;-11306619739.0;-11275037842.0;-681913.0;-4799.997368295046;-4809.059869672463;-31.85228723785167;0.001337093863185146;-3916.6666666666665;3916.6680037605297
0.3840000000000003;-11325819730.0;-11294384766.0;-534979.0;-4799.997362947824;-4834.348557067208;2.2524455130560455;0.0013368055533646839;-2750.0;2750.0013368055534
0.3880000000000003;-11345019720.0;-11313610840.0;-508895.0;-4799.997357617338;-4809.626687837832;-20.904378368473772;0.0013326214229891775;-2000.0;2000.001332621423
0.3920000000000003;-11364219710.0;-11332957764.0;-361962.0;-4799.997352288583;-4840.3278621237505;18.61278125795161;0.001332188730884809;833.3333333333334;-833.3320011446025
0.3960000000000003;-11383419701.0;-11352326660.0;-193056.0;-4799.997346966753;-4856.210287611842;44.62957207580257;0.0013304575077199843;-1083.3333333333333;1083.334663790841
0.4000000000000003;-11402619691.0;-11371734009.0;14303.0;-4799.997341655888;-4838.812774755053;39.673604545264425;0.0013277162906888407;-3083.3333333333335;3083.334661049624
0.4040000000000003;-11421819681.0;-11391119385.0;199688.0;-4799.99733635137;-4847.819283872537;59.80321898036436;0.0013261294498079224;-2166.6666666666665;2166.6679927961163
0.4080000000000003;-11441019671.0;-11410460815.0;341128.0;-4799.997331058394;-4838.342007834725;58.812348250939976;0.0013232440778665477;-750.0;750.0013232440779
0.4120000000000003;-11460219662.0;-11429890137.0;570460.0;-4799.997325769457;-4847.571764553108;81.80203026934123;0.001322234084000229;916.6666666666666;-916.6653444325826
0.4160000000000003;-11479419652.0;-11449099731.0;580064.0;-4799.9973204920625;-4814.131185190075;48.9376961977332;0.0013193487120588543;1666.6666666666667;-1666.6653473179547
0.4200000000000003;-11498617473.0;-11468303833.0;584175.0;-4799.4550349615965;-4787.744875454605;22.798051746554847;135.57138261649015;2750.0;-2614.42861738351
0.4240000000000003;-11517806587.0;-11487529907.0;611119.0;-4797.278265308643;-4812.124653801352;49.00948101806807;544.1924132383065;4583.333333333333;-4039.1409200950266
0.4280000000000003;-11536978392.0;-11506734009.0;620839.0;-4792.95109847637;-4788.555737407707;27.210920147175784;1081.7917080682946;500.0;581.7917080682946
0.43200000000000033;-11556108653.0;-11526004028.0;708556.0;-4782.564910330868;-4815.271338890128;62.20933310886903;2596.5470363755685;750.0;1846.5470363755685
0.43600000000000033;-11575140501.0;-11545120239.0;669332.0;-4757.961748771903;-4793.916124843933;45.21755318991018;6150.7903897411325;250.0;5900.7903897411325
0.44000000000000034;-11594020248.0;-11564208984.0;666592.0;-4719.936670977721;-4766.9882759120765;34.112798143736654;9506.269448545481;2666.6666666666665;6839.602781878815
0.44400000000000034;-11612606366.0;-11582968140.0;453629.0;-4646.529302780655;-4696.071786064752;-19.740032653347953;18351.842049266677;6333.333333333333;12018.508715933345
0.44800000000000034;-11630862793.0;-11601600952.0;322222.0;-4564.106396161186;-4644.849323637977;-26.87195602992051;20605.72665486711;9083.333333333334;11522.393321533778
0.45200000000000035;-11648650377.0;-11620079956.0;344105.0;-4446.895800360363;-4612.997220070817;19.363490608743632;29302.64895020582;12333.333333333334;16969.31561687249
0.45600000000000035;-11665834566.0;-11638059082.0;250762.0;-4296.047173775545;-4486.494383396961;-16.5770696633208;37712.15664620445;13750.0;23962.15664620445
0.46000000000000035;-11682271146.0;-11655549316.0;189901.0;-4109.144685923373;-4361.913366389349;-14.466031374722661;46725.62196304307;20750.0;25975.621963043068
0.46400000000000036;-11697808802.0;-11672210083.0;-40642.0;-3884.413867125943;-4161.196782632813;-64.06887373216523;56182.704699357484;30583.333333333332;25599.371366024156
0.46800000000000036;-11712307418.0;-11688272095.0;-63181.0;-3624.6538639730716;-4010.5960344683676;-14.332384985531462;64940.00078821785;39833.333333333336;25106.667454884508
0.47200000000000036;-11725658468.0;-11703416748.0;-49488.0;-3337.76219636389;-3771.6102462231815;-14.0989005440224;71722.91690229543;43750.0;27972.916902295423
0.47600000000000037;-11737771282.0;-11717671509.0;155561.0;-3028.2034003395142;-3551.8992362181916;48.80506450154826;77389.6990060939;49916.666666666664;27473.032339427242
