Zeit[sec];Sollposition[°];Istposition[°];Positionsschleppfehler[°];Sollgeschwindigkeit[°/s];Istgeschwindigkeit[°/s];Geschwindigkeitsdifferenz[°/s];Sollbeschleunigung[°/s*s];Istbeschleunigung[°/s*s];Beschleunigungsdifferenz[°/s*s]
0.0;9817499999.0;9817492676.0;7323.0;0.0;-5.327944467142224;5.767324467147722;0.0;83.33333333333333;-83.33333333333333
0.004;9817499999.0;9817503662.0;-3663.0;0.0;-0.3971640212982893;0.17738402124795322;0.0;0.0;0.0
0.008;9817499999.0;9817509155.0;-9156.0;0.0;4.619214111223817;-5.168574111199879;0.0;0.0;0.0
0.012;9817499999.0;9817503662.0;-3663.0;0.0;2.4853735878914596;-2.705153587941796;0.0;-83.33333333333333;83.33333333333333
0.016;9817499999.0;9817503662.0;-3663.0;0.0;2.637090918496251;-2.8568709185465875;0.0;0.0;0.0
0.02;9817499999.0;9817503662.0;-3663.0;0.0;0.198610624037683;-0.4183906240880191;0.0;0.0;0.0
0.024;9817499999.0;9817487183.0;12816.0;0.0;-6.250456816881895;7.019416816881247;0.0;0.0;0.0
0.028;9817499999.0;9817503662.0;-3663.0;0.0;2.769032027386129;-2.9888120274364653;0.0;0.0;0.0
0.032;9817499999.0;9817492676.0;7323.0;0.0;-4.311874807327986;4.751254807333484;0.0;83.33333333333333;-83.33333333333333
0.036000000000000004;9817499916.0;9817492676.0;7323.0;-0.020769347781296032;-4.051761163152754;4.491141163158252;-5.192336945324008;0.0;-5.192336945324008
0.04000000000000001;9817499089.0;9817503662.0;-3697.0;-0.20698052659390548;-0.17429302705824376;-0.055761694900336584;-46.55279470315236;0.0;-46.55279470315236
0.04400000000000001;9817495019.0;9817498169.0;1419.0;-1.0173512562400007;0.20772074764966966;-0.21705822289821142;-202.5926824115238;-83.33333333333333;-119.25934907819047
0.048000000000000015;9817481568.0;9817492676.0;4803.0;-3.36269279232127;-2.7394185104295614;2.5004097327403225;-586.3353840203173;0.0;-586.3353840203173
0.05200000000000002;9817447446.0;9817498169.0;-8460.0;-8.530592605719125;0.32195577897876504;-2.77205004228842;-1291.9749533494637;0.0;-1291.9749533494637
0.05600000000000002;9817376079.0;9817492676.0;-24559.0;-17.84161474138256;-0.8474262060672045;-6.024055878267851;-2327.755533915859;-83.33333333333333;-2244.4222005825254
0.060000000000000026;9817247180.0;9817481689.0;-62340.0;-32.224796969272894;-1.914213588669896;-14.018173146196894;-3595.7955569725837;-166.66666666666666;-3429.1288903059167
0.06400000000000003;9817038767.0;9817421265.0;-95875.0;-52.10335238564963;-16.263680161133408;-12.978584826025607;-4969.638854094183;-500.0;-4469.638854094183
0.06800000000000003;9816668894.0;9817322388.0;-157086.0;-92.46828135525213;-28.9373826649338;-20.509834466123465;-10091.232242400625;-1416.6666666666667;-8674.56557573396
0.07200000000000004;9816222290.0;9817124634.0;-231296.0;-111.65082160901851;-51.67916842362285;-30.18953168590391;-4795.635063441594;-2916.6666666666665;-1878.9683967749274
0.07600000000000004;9815632119.0;9816734619.0;-240630.0;-147.54279323996965;-98.96143262842298;-15.313712954676404;-8972.992907737787;-5500.0;-3472.992907737787
0.08000000000000004;9814876550.0;9816234741.0;-243829.0;-188.89237098590445;-114.87901921956987;-25.519750632321006;-10337.394436483699;-8500.0;-1837.3944364836987
0.08400000000000005;9813936227.0;9815614014.0;-278009.0;-235.0806097365402;-158.87536165611445;-21.532128551690846;-11547.059687658937;-7916.666666666667;-3630.39302099227
0.08800000000000005;9812795994.0;9814746094.0;-237941.0;-285.05841510274644;-215.95572025545687;-5.283743021783067;-12494.45134155156;-9666.666666666666;-2827.7846748848942
0.09200000000000005;9811445637.0;9813784790.0;-295139.0;-337.58904874206655;-245.57606402202697;-26.757670427635446;-13132.658409830028;-8916.666666666666;-4215.991743163363
0.09600000000000006;9809879661.0;9812548828.0;-281549.0;-391.494085782182;-313.79742177084836;-8.68867007551978;-13476.259260028868;-11750.0;-1726.2592600288685
0.10000000000000006;9808096097.0;9811208496.0;-375833.0;-445.8909522331106;-334.20998123327644;-46.99375574754066;-13599.216612732149;-11666.666666666666;-1932.5499460654837
0.10400000000000006;9806094987.0;9809664917.0;-483237.0;-500.2773481620038;-388.7483786201924;-52.991584932310786;-13596.598982223299;-10833.333333333334;-2763.2656488899647
0.10800000000000007;9803877123.0;9807863159.0;-550021.0;-554.4661951508144;-447.2111274189502;-52.925709373264056;-13547.211747202653;-12416.666666666666;-1130.5450805359865
0.11200000000000007;9801443288.0;9805874634.0;-647271.0;-608.4585334141598;-499.9925449235365;-60.28742408020895;-13498.084565836336;-12000.0;-1498.0845658363364
0.11600000000000008;9798793977.0;9803540039.0;-614899.0;-662.3278872118398;-586.370615022175;-26.079125844509804;-13467.338449419998;-15083.333333333334;1615.994883913336
0.12000000000000008;9795929382.0;9801029663.0;-622526.0;-716.1485225140364;-627.3735120030567;-39.478577126303776;-13455.158825549148;-15750.0;2294.841174450852
0.12400000000000008;9792849514.0;9798272095.0;-598363.0;-769.967027348217;-688.4835707349107;-30.769496681892633;-13454.626208545164;-15416.666666666666;1962.0404581215016
0.12800000000000009;9789554308.0;9795311279.0;-586233.0;-823.8016041331873;-733.8037554983944;-38.54158798324613;-13458.644196242574;-15166.666666666666;1708.0224704240923
0.1320000000000001;9786043697.0;9792185669.0;-624608.0;-877.6525850344019;-787.9852528535203;-40.48748022296536;-13462.74522530365;-11916.666666666666;-1546.0785586369834
0.1360000000000001;9782317643.0;9788741455.0;-559743.0;-931.5133741541033;-863.5544788260535;-14.867340839535245;-13465.197279925349;-13750.0;284.80272007465146
0.1400000000000001;9778376134.0;9785137939.0;-550995.0;-985.3773665202375;-905.0924218464494;-26.659291407885462;-13465.998091533549;-13583.333333333334;117.3352417997844
0.1440000000000001;9774219171.0;9781309204.0;-532476.0;-1039.2406230579456;-961.3985645885617;-23.10401035262521;-13465.814134427035;-14500.0;1034.1858655729652
0.1480000000000001;9769846763.0;9777299194.0;-548137.0;-1093.1018489741339;-1000.488529140696;-38.817387653094215;-13465.306479047058;-13583.333333333334;118.02685428627592
0.1520000000000001;9765258918.0;9772998047.0;-488111.0;-1146.9613288032142;-1078.9213339910657;-10.645478542191086;-13464.869957270083;-12583.333333333334;-881.5366239367481
0.1560000000000001;9760455638.0;9768570557.0;-517184.0;-1200.8198739323796;-1106.5312410881743;-38.64049696314282;-13464.636282291338;-14083.333333333334;618.6970510419965
0.16000000000000011;9755436925.0;9763862915.0;-481541.0;-1254.678192401993;-1178.408703557752;-18.483573959864998;-13464.579617403388;-12666.666666666666;-797.9129507367215
0.16400000000000012;9750202778.0;9759012451.0;-518511.0;-1308.5366760730767;-1215.8072571809219;-37.16168107553676;-13464.6209177709;-13583.333333333334;118.71241556243285
0.16800000000000012;9744753212.0;9753804932.0;-413859.0;-1362.3914126897207;-1306.5616420102044;6.013438456247513;-13463.684154161001;-13083.333333333334;-380.3508208276671
0.17200000000000013;9739088372.0;9748536987.0;-464209.0;-1416.2098965954235;-1322.1594702865855;-35.266730322008925;-13454.620976425702;-14750.0;1295.3790235742986
0.17600000000000013;9733208762.0;9742983398.0;-444276.0;-1469.9025899304975;-1399.545335924171;-10.525269623037502;-13423.17333376849;-12500.0;-923.1733337684886
0.18000000000000013;9727115552.0;9737237549.0;-447159.0;-1523.302344535147;-1438.062116277121;-25.950291598208878;-13349.938651162403;-13750.0;400.06134883759614
0.18400000000000014;9720811600.0;9731293945.0;-466596.0;-1575.987900703621;-1497.491976476714;-21.263936158313072;-13171.389042118506;-11916.666666666666;-1254.7223754518395
0.18800000000000014;9714303390.0;9725053711.0;-401876.0;-1627.0525616377306;-1561.6911525130495;-6.299862644067844;-12766.165233527374;-15000.0;2233.8347664726257
0.19200000000000014;9707602403.0;9718665161.0;-397028.0;-1675.2464991008947;-1605.7906078944802;-13.956608553529804;-12048.484365791011;-13166.666666666666;1118.1823008756542
0.19600000000000015;9700724987.0;9712062378.0;-377692.0;-1719.3540117522807;-1648.5375031542778;-19.985514659693308;-11026.878162846515;-14416.666666666666;3389.788503820151
0.20000000000000015;9693691334.0;9705283813.0;-368935.0;-1758.4132580994776;-1700.3262215760128;-14.261930758988001;-9764.811586799226;-11750.0;1985.188413200774
0.20400000000000015;9686524191.0;9698307495.0;-330945.0;-1791.7855236666408;-1740.7511947795153;-13.687455391846242;-8343.066391790784;-12250.0;3906.933608209215
0.20800000000000016;9679247528.0;9691199341.0;-308455.0;-1819.1656934908042;-1769.9504558483884;-19.972821335324852;-6845.042456040857;-11166.666666666666;4321.624210625809
0.21200000000000016;9671885399.0;9683948364.0;-267262.0;-1840.532294381328;-1822.7821816471667;4.300669078832925;-5341.65022263096;-9666.666666666666;4325.016444035706
0.21600000000000016;9664461137.0;9676620483.0;-249288.0;-1856.0653046688944;-1826.6310206910373;-15.803045517173132;-3883.252571891603;-9166.666666666666;5283.414094775063
0.22000000000000017;9656996174.0;9669232178.0;-247246.0;-1866.2406434666893;-1855.4191432085784;-5.9813121214599505;-2543.8346994487233;-5500.0;2956.1653005512767
0.22400000000000017;9649508100.0;9661662598.0;-117702.0;-1872.018457311677;-1875.2461013870984;8.175327606635392;-1444.4534612468942;-8250.0;6805.546538753106
0.22800000000000017;9642009368.0;9654246826.0;-175817.0;-1874.6829233551189;-1879.7890239372255;0.7681686851399263;-666.1165108604905;-1583.3333333333333;917.2168224728428
0.23200000000000018;9634507516.0;9646699219.0;-120375.0;-1875.4627553923197;-1869.3577281218618;-10.905793965806879;-194.95800930019413;-5166.666666666667;4971.708657366473
0.23600000000000018;9627006237.0;9639277954.0;-199016.0;-1875.319867106689;-1865.9535169914514;-20.96394547585669;35.72207140769024;2250.0;-2214.2779285923098
0.24000000000000019;9619506668.0;9631653442.0;-76111.0;-1874.892072684777;-1900.4944809413553;20.526287850065728;106.94860547795315;-2750.0;2856.948605477953
0.2440000000000002;9612008621.0;9624254150.0;-177423.0;-1874.511599197793;-1853.05085978695;-32.74561075179167;95.11837174602533;1166.6666666666667;-1071.5482949206414
0.2480000000000002;9604511477.0;9616618652.0;-40901.0;-1874.286077459838;-1911.686528727785;34.48874122778602;56.38043448874441;-1333.3333333333333;1389.7137678220777
0.25200000000000017;9597014677.0;9609246826.0;-166772.0;-1874.1998921573181;-1840.0394530265778;-44.39127966270212;21.546325629969942;-83.33333333333333;104.87965896330327
0.25600000000000017;9589517893.0;9601589355.0;-6314.0;-1874.1958519858235;-1917.679081417337;43.04701366683162;1.010042873645034;1166.6666666666667;-1165.6566237930217
0.2600000000000002;9582021005.0;9594239502.0;-153257.0;-1874.2219086699893;-1834.934041904226;-48.460173380167134;-6.514171041430927;-1500.0;1493.485828958569
0.2640000000000002;9574524015.0;9586614990.0;-25570.0;-1874.2474423656217;-1922.1558636566028;46.415456929710444;-6.383423908118857;3000.0;-3006.383423908119
0.2680000000000002;9567026968.0;9579078369.0;14123.0;-1874.2615709216243;-1865.6120754334554;-7.772424272076023;-3.5321390006402;-4750.0;4746.46786099936
0.2720000000000002;9559529908.0;9571591187.0;4293.0;-1874.2650269320716;-1897.5619371759296;23.566622670184643;-0.8640026118200694;3333.3333333333335;-3334.1973359451536
0.2760000000000002;9552032857.0;9563950195.0;148233.0;-1874.2625885846273;-1889.7983613237814;24.429482932471046;0.6095868610600519;-5333.333333333333;5333.942920194393
0.2800000000000002;9544535822.0;9556600342.0;1030.0;-1874.2586168835192;-1856.549335965246;-17.652903950149266;0.9929252770461972;5416.666666666667;-5415.673741389621
0.2840000000000002;9537038800.0;9548959351.0;144976.0;-1874.2555191517888;-1887.6073374374287;22.04486928305664;0.7744329325873878;-3333.3333333333335;3334.107766265921
0.2880000000000002;9529541784.0;9541746826.0;-139529.0;-1874.2539431775745;-1817.901382992871;-64.72776896013306;0.3939935535868244;5833.333333333333;-5832.939339779747
0.2920000000000002;9522044769.0;9534133301.0;-23024.0;-1874.253564138712;-1902.1257550425828;26.48940258911489;0.0947597156368829;666.6666666666666;-666.5719069510297
0.2960000000000002;9514547753.0;9526931763.0;-318501.0;-1874.2537888336374;-1801.5121499266252;-91.85171220214988;-0.056173731366016;2250.0;-2250.056173731366
0.3000000000000002;9507050737.0;9519329224.0;-212978.0;-1874.2541459368713;-1896.1259319666922;9.093596518940558;-0.08927580847739591;416.6666666666667;-416.7559424751441
0.3040000000000002;9499553719.0;9511946411.0;-327181.0;-1874.2543958684855;-1832.5836704663784;-61.3011186365477;-0.062482903558702674;-3333.3333333333335;3333.270850429775
0.3080000000000002;9492056700.0;9504409790.0;-287577.0;-1874.2544847595157;-1902.701640082106;11.192777143576905;-0.022222757536383142;1916.6666666666667;-1916.6888894242031
0.3120000000000002;9484559682.0;9496873169.0;-247974.0;-1874.2544537870608;-1870.1135388792381;-19.01933076866476;0.007743113712876948;-5666.666666666667;5666.67440978038
0.3160000000000002;9477062664.0;9489457397.0;-329221.0;-1874.2543659539938;-1877.6718827560023;-16.3358492025784;0.02195826675688295;3500.0;-3499.978041733243
0.32000000000000023;9469565647.0;9481799927.0;-168769.0;-1874.2542683965808;-1883.9735350208507;-0.40702412324048964;0.024389353256992763;-5750.0;5750.024389353257
0.32400000000000023;9462068630.0;9474439087.0;-304946.0;-1874.2541835435231;-1863.3147943312824;-29.236293457414604;0.02121326440374105;4416.666666666667;-4416.645453402263
0.32800000000000024;9454571613.0;9466721191.0;-84067.0;-1874.2541152431716;-1905.0958300583884;25.79757473303198;0.017075087896500918;-4666.666666666667;4666.683741754563
0.33200000000000024;9447074596.0;9459360352.0;-220245.0;-1874.2540584549447;-1855.2660284908116;-32.20282846986629;0.014197056714237988;3166.6666666666665;-3166.6524696099523
0.33600000000000024;9439577580.0;9451680908.0;-37818.0;-1874.2540065770054;-1908.0059723447487;31.482799216915055;0.012969484828317945;-2500.0;2500.0129694848283
0.34000000000000025;9432080564.0;9444358521.0;-212448.0;-1874.2539549718604;-1831.5666538453177;-55.43426437365065;0.012901286254418665;2000.0;-1999.9870987137456
0.34400000000000025;9424583548.0;9436635132.0;13925.0;-1874.2539016002263;-1935.3337729226723;61.91528650224245;0.013342908516733587;333.3333333333333;-333.3199904248166
0.34800000000000025;9417086532.0;9429301758.0;-149717.0;-1874.2538462597079;-1827.8163443590925;-55.42060975409731;0.013835129607286945;-1333.3333333333333;1333.3471684629405
0.35200000000000026;9409589517.0;9421633301.0;21724.0;-1874.2537895617497;-1925.5732398484722;52.62279987715988;0.014174489535889734;2083.3333333333335;-2083.3191588437976
0.35600000000000026;9402092501.0;9414272461.0;-114451.0;-1874.2537321986974;-1821.1128926547915;-60.00799144937332;0.014340763073050766;-3166.6666666666665;3166.6810074297396
0.36000000000000026;9394595486.0;9406708374.0;-47380.0;-1874.2536746329656;-1905.7320212621987;28.635454111790068;0.014391432955562777;5250.0;-5249.985608567044
0.36400000000000027;9387098471.0;9399232178.0;-68199.0;-1874.2536170533244;-1835.8177382677422;-42.527911443155745;0.014394910294868168;-4916.666666666667;4916.681061576962
0.36800000000000027;9379601457.0;9391799927.0;-132963.0;-1874.2535594677215;-1894.0639724031166;11.832540262314069;0.014396400729310699;7000.0;-6999.985603599271
0.3720000000000003;9372104442.0;9384169922.0;27.0;-1874.253501811721;-1872.633130816199;-1.6188437426753808;0.014414000133911031;-7083.333333333333;7083.347747333467
0.3760000000000003;9364607428.0;9376770630.0;-97695.0;-1874.2534440163427;-1879.3070567659736;-0.8081801795522097;0.014448844581238518;5416.666666666667;-5416.652217822086
0.3800000000000003;9357110414.0;9369014282.0;161638.0;-1874.2533860421295;-1917.7521111700387;53.196911935466005;0.014493553294414596;-7750.0;7750.014493553294
0.3840000000000003;9349613401.0;9361636963.0;41943.0;-1874.2533278785793;-1861.659780184433;-10.077061184720606;0.014540887548264436;3583.3333333333335;-3583.318792445785
0.3880000000000003;9342116387.0;9353919067.0;262825.0;-1874.2532695305167;-1921.262532389544;62.77866906870463;0.014587015641609469;-3583.3333333333335;3583.347920348975
0.3920000000000003;9334619374.0;9346602173.0;82706.0;-1874.253211011;-1844.1790670577734;-25.111878027526473;0.014629879160565906;3083.3333333333335;-3083.318703454173
0.3960000000000003;9327122361.0;9338950195.0;237670.0;-1874.2531523302487;-1910.2838798078076;50.290833137466734;0.014670187852061645;833.3333333333334;-833.3186631454813
0.4000000000000003;9319625348.0;9331495972.0;194880.0;-1874.2530934990489;-1854.6585118805021;-7.901876207506348;0.014707799948610045;-666.6666666666666;666.6813744666152
0.4040000000000003;9312128336.0;9323953857.0;239982.0;-1874.2530345242135;-1903.8508743433356;43.996664994820094;0.01474370884579912;1833.3333333333333;-1833.3185896244875
0.4080000000000003;9304631324.0;9316461182.0;235645.0;-1874.2529754063107;-1867.418882652305;7.304512191061576;0.01477947569128446;-2166.6666666666665;2166.681446142358
0.4120000000000003;9297134312.0;9308979492.0;220323.0;-1874.2529161530044;-1876.957264216192;15.92363278576022;0.014813326572493679;3083.3333333333335;-3083.318520006761
0.4160000000000003;9289637300.0;9301437378.0;265425.0;-1874.2528567654301;-1858.759373941727;0.4319216820126712;0.014846893577669107;-3333.3333333333335;3333.348180226911
0.4200000000000003;9282140288.0;9294032593.0;173198.0;-1874.2527972506846;-1868.59955323039;4.73854027644029;0.014878686386055051;4166.666666666667;-4166.651787980281
0.4240000000000003;9274643277.0;9286463013.0;245766.0;-1874.2527376107548;-1875.678560426213;16.17168690948597;0.01490998243980357;-2250.0;2250.01490998244
0.4280000000000003;9267146266.0;9279085693.0;126074.0;-1874.2526778510346;-1853.467158280939;-13.221175672174695;0.014939930053969874;3166.6666666666665;-3166.6517267366125
0.43200000000000033;9259649255.0;9271516113.0;198643.0;-1874.2526179769166;-1887.8860084927007;25.551874226301152;0.014968529512771056;-2000.0;2000.0149685295128
0.43600000000000033;9252152245.0;9264182739.0;35006.0;-1874.2525579929431;-1835.6333691647724;-36.5189252972998;0.014995993353750237;1833.3333333333333;-1833.3183373399795
0.44000000000000034;9244655234.0;9256552734.0;168001.0;-1874.2524979062105;-1904.0974542336687;39.92491968871832;0.01502168316847019;-583.3333333333334;583.3483550165018
0.44400000000000034;9237158224.0;9249219360.0;4364.0;-1874.252437716435;-1826.8975638950542;-47.09313062587216;0.015047443866933463;-1083.3333333333333;1083.3483807772002
0.44800000000000034;9229661214.0;9241572876.0;153838.0;-1874.2523774332685;-1914.0309988320396;49.008804437925846;0.015070791619109514;916.6666666666666;-916.6515958750475
0.45200000000000035;9222164205.0;9234146118.0;83586.0;-1874.2523170581296;-1840.1233810942547;-29.113873073503783;0.015093784725195292;-3416.6666666666665;3416.6817604513917
0.45600000000000035;9214667195.0;9226614990.0;117704.0;-1874.2522565978313;-1905.3428128205985;38.15269897199073;0.015115074575078324;3500.0;-3499.984884925425
0.46000000000000035;9207170186.0;9219122314.0;113371.0;-1874.2521960580516;-1849.6404831515179;-17.8095502887536;0.015134944931105565;-4333.333333333333;4333.348468278264
0.46400000000000036;9199673177.0;9211690063.0;48612.0;-1874.2521354410599;-1884.9385142140538;13.603001265040575;0.015154247932969156;5833.333333333333;-5833.3181790854
0.46800000000000036;9192176169.0;9204125977.0;115689.0;-1874.252074754522;-1864.1357158504502;-3.175116528665967;0.015171634458965855;-5166.666666666667;5166.681838301126
0.47200000000000036;9184679160.0;9196831055.0;-86397.0;-1874.2520139995727;-1849.786291766271;-29.649639968719157;0.015188737336302438;6333.333333333333;-6333.318144595996
0.47600000000000037;9177182152.0;9189157104.0;90545.0;-1874.2519531858634;-1893.406604190439;24.587253168731422;0.015203427324195218;-4833.333333333333;4833.348536760657
0.48000000000000037;9169685144.0;9181851196.0;-100555.0;-1874.25189231311;-1855.3741288165972;-24.911161427332445;0.015218188366361574;4250.0;-4249.984781811634
