Zeit[sec];Sollposition[°];Istposition[°];Positionsschleppfehler[°];Sollgeschwindigkeit[°/s];Istgeschwindigkeit[°/s];Geschwindigkeitsdifferenz[°/s];Sollbeschleunigung[°/s*s];Istbeschleunigung[°/s*s];Beschleunigungsdifferenz[°/s*s]
0.0;0.0;0.0;0.0;-0.0;-0.14985721932108875;0.14985721932108875;0.0;0.0;0.0
0.004;0.0;0.0;0.0;-0.0;-0.9751984667711048;0.9751984667711048;0.0;0.0;0.0
0.008;0.0;5493.0;-5493.0;-0.0;2.2040319418569108;-2.5336119418569107;0.0;0.0;0.0
0.012;0.0;0.0;0.0;-0.0;-0.24910820757123148;0.24910820757123148;0.0;0.0;0.0
0.016;0.0;0.0;0.0;-0.0;-0.10690591263203313;0.10690591263203313;0.0;0.0;0.0
0.02;0.0;5493.0;-5493.0;-0.0;2.2078751191186683;-2.5374551191186683;0.0;0.0;0.0
0.024;0.0;0.0;0.0;-0.0;-0.8804383514286243;0.8804383514286243;0.0;0.0;0.0
0.028;0.0;0.0;0.0;-0.0;-0.4870727252189123;0.4870727252189123;0.0;0.0;0.0
0.032;0.0;0.0;0.0;-0.0;-0.5957333260053859;0.5957333260053859;0.0;0.0;0.0
0.036000000000000004;0.0;0.0;0.0;-0.0;-0.6237215294580375;0.6237215294580375;0.0;0.0;0.0
0.04000000000000001;0.0;0.0;0.0;-0.0;-0.06951386639862157;0.06951386639862157;0.0;0.0;0.0
0.04400000000000001;0.0;0.0;0.0;-0.0;-0.3689958454263692;0.3689958454263692;0.0;0.0;0.0
0.048000000000000015;-280.0;0.0;0.0;-0.07005870548385866;-0.35879097812214444;0.35879097812214444;-17.514676370964665;0.0;-17.514676370964665
0.05200000000000002;-3072.0;0.0;-111.0;-0.6981821409464323;0.38151373013048884;-0.41595091218756564;-157.0308588656434;0.0;-157.0308588656434
0.05600000000000002;-16799.0;0.0;-1385.0;-3.431706799174595;-0.04395656397739642;-0.35783276901124905;-683.3811645570407;0.0;-683.3811645570407
0.060000000000000026;-62171.0;0.0;-8498.0;-11.342961090591311;-0.11640666232509728;-2.1717748835313535;-1977.813572854179;0.0;-1977.813572854179
0.06400000000000003;-177272.0;0.0;-34708.0;-28.775206656051136;-0.600966392414796;-8.033892373913918;-4358.061391364956;0.0;-4358.061391364956
0.06800000000000003;-418004.0;0.0;-107541.0;-60.18294096996956;-0.11270571567861941;-24.547973357166782;-7851.933578479606;0.0;-7851.933578479606
0.07200000000000004;-852804.0;-5493.0;-266551.0;-108.69997373633447;-2.924733766274774;-54.19406673553624;-12129.258191591229;0.0;-12129.258191591229
0.07600000000000004;-1555819.0;-21973.0;-567012.0;-175.75387802013216;-3.7768371759836836;-109.479039513967;-16763.476070949422;-250.0;-16513.476070949422
0.08000000000000004;-2603446.0;-60425.0;-1068566.0;-261.9065767612864;-9.33971179479732;-189.77576778394308;-21538.17468528855;-500.0;-21038.17468528855
0.08400000000000005;-4073450.0;-186768.0;-1780300.0;-367.501044296505;-33.358250511705606;-282.9789324529636;-26398.61688380465;-1500.0;-24898.61688380465
0.08800000000000005;-6042527.0;-576782.0;-2603359.0;-492.2693410269143;-110.45480586922244;-349.0150663870364;-31192.074182602326;-4500.0;-26692.074182602326
0.09200000000000005;-8581397.0;-2301636.0;-2543909.0;-634.7172945433977;-460.6619613087719;-108.32358555348969;-35611.98837912085;-19666.666666666668;-15945.321712454177
0.09600000000000006;-11750270.0;-4987793.0;-2049819.0;-792.2182927399216;-652.2112967153563;-18.79450789291525;-39375.24954913098;-47500.0;8124.750450869015
0.10000000000000006;-15596101.0;-7602539.0;-2220390.0;-961.4577859057719;-654.3699974734573;-175.18272592412973;-42309.873291462565;-50666.666666666664;8356.793375204099
0.10400000000000006;-20151058.0;-10750122.0;-2506392.0;-1138.7391474967794;-813.9113203582393;-194.8684496435534;-44320.34039775189;-38083.333333333336;-6237.007064418556
0.10800000000000007;-25432976.0;-14968872.0;-2410664.0;-1320.4795358389376;-1056.9186983621248;-118.47657973793775;-45435.09708553955;-28583.333333333332;-16851.76375220622
0.11200000000000007;-31448546.0;-19973145.0;-2245422.0;-1503.892430346832;-1257.7145031602295;-86.76843064257582;-45853.2236269736;-40916.666666666664;-4936.556960306938
0.11600000000000008;-38197871.0;-25570679.0;-2216428.0;-1687.331140517505;-1411.7107336921772;-113.40994390472179;-45859.677542668236;-52500.0;6640.322457331763
0.12000000000000008;-45678466.0;-32019653.0;-2069647.0;-1870.1486737155117;-1623.5821070871284;-76.14504068377119;-45704.38329950167;-47666.666666666664;1962.2833671649928
0.12400000000000008;-53887746.0;-39320068.0;-1804195.0;-2052.3199138841833;-1836.2734416706803;-30.718858043471528;-45542.8100421679;-47166.666666666664;1623.8566244987637
0.12800000000000009;-62824039.0;-47400513.0;-1488972.0;-2234.0730668744513;-2017.354745232098;-13.289102301082949;-45438.28824756702;-50416.666666666664;4978.378419099648
0.1320000000000001;-72486644.0;-56063232.0;-1319513.0;-2415.651125087654;-2170.4555009651576;-32.03006857628861;-45394.51455330061;-49166.666666666664;3772.1521133660544
0.1360000000000001;-82875492.0;-65549927.0;-1052823.0;-2597.2119723724577;-2375.9577302525686;7.787380334544196;-45390.21182120098;-45333.333333333336;-56.878487867642434
0.1400000000000001;-93990777.0;-75624390.0;-924653.0;-2778.820944503326;-2523.3006675938473;-18.751742619149354;-45402.24303271702;-43083.333333333336;-2318.9096993836883
0.1440000000000001;-105832688.0;-86248169.0;-973488.0;-2960.4776793245287;-2677.0067675986347;-49.55577149396413;-45414.18370530073;-40750.0;-4664.183705300729
0.1480000000000001;-118401222.0;-97756348.0;-864433.0;-3142.1334630058413;-2883.872141952554;-17.774724449817313;-45413.94592032816;-42166.666666666664;-3247.279253661496
0.1520000000000001;-131696014.0;-110039063.0;-707466.0;-3323.6977177416375;-3068.3703423395036;-5.514581912451831;-45391.063683949025;-44416.666666666664;-974.3970172823638
0.1560000000000001;-145715514.0;-122860107.0;-738648.0;-3504.874933663411;-3209.283461941146;-48.091881768449184;-45294.30398044337;-46416.666666666664;1122.3626862232904
0.16000000000000011;-160453759.0;-136356812.0;-819815.0;-3684.56086073046;-3389.315745625487;-54.34095428004093;-44921.48176676221;-42583.333333333336;-2338.148433428877
0.16400000000000012;-175894857.0;-150671997.0;-804855.0;-3860.2745300062757;-3584.757956570505;-38.58935433283705;-43928.41731895396;-41500.0;-2428.4173189539615
0.16800000000000012;-192008704.0;-165750732.0;-738824.0;-4028.4613956811736;-3776.897369280858;-20.60780856247129;-42046.716418724485;-44833.333333333336;2786.6169146088496
0.17200000000000013;-208749990.0;-181587524.0;-605746.0;-4185.321393099566;-3966.62186048943;4.348678443747758;-39214.99935459815;-48583.333333333336;9368.333978735187
0.17600000000000013;-226059491.0;-197698975.0;-852970.0;-4327.375059592597;-4023.378198338504;-117.46846546553888;-35513.416623257624;-43916.666666666664;8403.250043409038
0.18000000000000013;-243866752.0;-214612427.0;-902416.0;-4451.815041964736;-4250.778046582099;-44.091264146041794;-31109.99559303491;-35833.333333333336;4723.337740298426
0.18400000000000014;-262093895.0;-232327881.0;-690488.0;-4556.7855467550735;-4427.863782219759;10.553279693439436;-26242.626197584286;-39916.666666666664;13674.040469082378
0.18800000000000014;-280659509.0;-250548706.0;-440484.0;-4641.403265960896;-4541.322376553906;22.18827012564907;-21154.429801455535;-41166.666666666664;20012.23686521113
0.19200000000000014;-299482232.0;-268934326.0;-413745.0;-4705.680523531594;-4623.475777018967;8.930988302156038;-16069.314392674642;-37750.0;21680.68560732536
0.19600000000000015;-318485466.0;-287902222.0;-111420.0;-4750.808187981597;-4736.633927945671;63.55634063861089;-11281.916112500767;-28250.0;16968.083887499233
0.20000000000000015;-337603333.0;-307067871.0;161443.0;-4779.46668636811;-4786.068504120557;72.55877131037869;-7164.624596628073;-22333.333333333332;15168.708736705259
0.20400000000000015;-356784856.0;-326101685.0;147631.0;-4795.380321599477;-4740.034007889991;-13.01454700393424;-3978.408807841788;-18916.666666666668;14938.25785882488
0.20800000000000016;-375994633.0;-345080566.0;-15922.0;-4802.444057357314;-4766.675746342572;-19.88784685524206;-1765.9339394592735;-3500.0;1734.0660605407265
0.21200000000000016;-395211305.0;-364389038.0;100197.0;-4804.167724278371;-4825.033889538499;32.95797103834684;-430.9167302642436;-2083.3333333333335;1652.41660306909
0.21600000000000016;-414424738.0;-383653564.0;152379.0;-4803.358201536749;-4797.039878329993;3.0965430474834648;202.38068540538734;-3833.3333333333335;4035.714018738721
0.22000000000000017;-433632271.0;-402725830.0;9297.0;-4801.882997614235;-4785.33615711934;-17.942684429908695;368.80098062852085;-4083.3333333333335;4452.134313961855
0.22400000000000017;-452834993.0;-422028809.0;101163.0;-4800.6801022433265;-4821.315909884992;24.607640356148295;300.7238427271659;-666.6666666666666;967.3905093938325
0.22800000000000017;-472035041.0;-441425171.0;291865.0;-4800.0117996996105;-4851.427506470709;67.52469430281599;167.07563592899533;0.0;167.07563592899533
0.23200000000000018;-491234181.0;-460541382.0;206386.0;-4799.784962110425;-4792.698491738758;4.659472796721275;56.70939729634483;-3333.3333333333335;3390.0427306296783
0.23600000000000018;-510433390.0;-479729004.0;194304.0;-4799.8020122999615;-4778.065188550537;-10.202349424516797;-4.262547384087156;416.6666666666667;-420.92921405075384
0.24000000000000019;-529632982.0;-498861694.0;127822.0;-4799.897729739521;-4797.036982000606;4.913250629934737;-23.929359889962143;5166.666666666667;-5190.596026556629
0.2440000000000002;-548832907.0;-517994385.0;61152.0;-4799.981056216192;-4769.4094677983;-26.76127506741159;-20.83161916766585;1166.6666666666667;-1187.4982858343326
0.2480000000000002;-568033003.0;-537352295.0;219340.0;-4800.023693267251;-4833.049961168064;46.28015462689018;-10.659262764647792;-83.33333333333333;72.67407056868554
0.25200000000000017;-587233132.0;-556254272.0;-78673.0;-4800.031934200098;-4729.148646735766;-75.56920616388925;-2.0602332117505284;-1416.6666666666667;1414.6064334549162
0.25600000000000017;-606433223.0;-575321045.0;-212009.0;-4800.022562829614;-4770.729239291662;-42.01801155022895;2.3428426209193276;5416.666666666667;-5414.323824045748
0.2600000000000002;-625633262.0;-594624023.0;-109144.0;-4800.009544799819;-4839.962830322223;33.38602001081654;3.254507448673394;916.6666666666666;-913.4121592179932
0.2640000000000002;-644833263.0;-613916016.0;-17222.0;-4800.000047185922;-4800.185649356674;-0.8651269379070072;2.374403474277642;-5083.333333333333;5085.707736807611
0.2680000000000002;-664033246.0;-633147583.0;14321.0;-4799.9956248917915;-4828.117879201073;28.971283779244004;1.1055735326408467;-4333.333333333333;4334.438906865974
0.2720000000000002;-683233227.0;-652395630.0;62374.0;-4799.994943372013;-4822.098441092953;25.84253162748064;0.1703799446204357;-2500.0;2500.1703799446204
0.2760000000000002;-702433212.0;-671885376.0;352137.0;-4799.996019095891;-4858.2921621035;79.42500151177865;-0.2689309694687836;0.0;-0.2689309694687836
0.2800000000000002;-721633203.0;-690831299.0;98078.0;-4799.997377549279;-4749.422671347383;-44.68802252562364;-0.33961334702325985;-1000.0;999.6603866529767
0.2840000000000002;-740833197.0;-709931030.0;-2179.0;-4799.99832062285;-4766.008186739873;-34.11910465849178;-0.23576839271299832;5250.0;-5250.235768392713
0.2880000000000002;-760033193.0;-729157104.0;23903.0;-4799.998731687545;-4809.66061303665;11.097049533126665;-0.10276617376803188;5250.0;-5250.102766173768
0.2920000000000002;-779233189.0;-748284302.0;-48893.0;-4799.99877139308;-4776.496621124885;-26.435436952871896;-0.009926383654601523;-166.66666666666666;166.65674028301206
0.2960000000000002;-798433184.0;-767477417.0;-55774.0;-4799.99864830088;-4818.108658986815;14.763473965223056;0.03077304995713348;-1416.6666666666667;1416.6974397166239
0.3000000000000002;-817633179.0;-786714478.0;-18709.0;-4799.998508776758;-4805.947047264941;4.82578490864762;0.03488103038762347;-2666.6666666666665;2666.701547697054
0.3040000000000002;-836833174.0;-806050415.0;117233.0;-4799.998417369785;-4836.873434905258;43.90882120226888;0.022851743324281415;-1083.3333333333333;1083.3561850766575
0.3080000000000002;-856033168.0;-825243530.0;110353.0;-4799.998380906858;-4808.940564084939;15.563270732087403;0.009115731700148899;-3500.0;3500.0091157317
0.3120000000000002;-875233162.0;-844447632.0;114460.0;-4799.998380601588;-4787.671263714872;-5.459539733516976;7.631751941516995e-05;583.3333333333334;-583.333257015814
0.3160000000000002;-894433157.0;-863618774.0;85608.0;-4799.998394828558;-4798.472553818519;3.61065281905303;-0.0035567425129556796;2583.3333333333335;-2583.3368900758464
0.32000000000000023;-913633152.0;-882762451.0;29291.0;-4799.998409290031;-4791.024620790339;-7.216305453806854;-0.003615368314058287;1833.3333333333333;-1833.3369487016473
0.32400000000000023;-932833146.0;-902054443.0;121288.0;-4799.99841819676;-4796.473669063244;3.752548584298893;-0.0022266822270466946;-416.6666666666667;416.66443998443964
0.32800000000000024;-952033141.0;-920939941.0;-193209.0;-4799.99842141208;-4755.61352887837;-55.977423858321345;-0.0008038298346946249;3083.3333333333335;-3083.334137163168
0.33200000000000024;-971233135.0;-940017700.0;-315444.0;-4799.998421104582;-4760.324094459894;-58.60096495950347;7.687435754633043e-05;2583.3333333333335;-2583.333256458976
0.33600000000000024;-990433130.0;-959370117.0;-163022.0;-4799.9984195138595;-4838.594938247257;28.81519697593285;0.00039768065107637085;1833.3333333333333;-1833.3329356526822
0.34000000000000025;-1009633124.0;-978508301.0;-224832.0;-4799.99841803347;-4764.629815403094;-48.858525072588236;0.00037009726838732604;-7083.333333333333;7083.333703430601
0.34400000000000025;-1028833119.0;-997926636.0;-6492.0;-4799.9984171751985;-4858.853656748834;58.46571781260809;0.00021456799004226923;-2750.0;2750.00021456799
0.34800000000000025;-1048033114.0;-1017196655.0;63533.0;-4799.998416899922;-4829.098123454122;32.91168575226948;6.881919034640305e-05;-4000.0;4000.0000688191903
0.35200000000000026;-1067233108.0;-1036625977.0;292860.0;-4799.998416964328;-4827.841138159426;45.4143210883567;-1.6101466826512478e-05;-1916.6666666666667;1916.6666505652
0.35600000000000026;-1086433103.0;-1055593872.0;60760.0;-4799.998417138844;-4782.057318720172;-14.29549820689499;-4.36291429650737e-05;2416.6666666666665;-2416.6667102958095
0.36000000000000026;-1105633097.0;-1074765015.0;31909.0;-4799.998417289063;-4780.664322375366;-17.419554657778463;-3.755462785193231e-05;4333.333333333333;-4333.333370887961
0.36400000000000027;-1124833092.0;-1093985596.0;52495.0;-4799.998417370739;-4798.12631453482;1.2775973374500609;-2.0419065549504012e-05;4916.666666666667;-4916.6666870857325
0.36800000000000027;-1144033087.0;-1113085327.0;-47768.0;-4799.998417393415;-4784.215485173176;-18.64901214737438;-5.669107849826105e-06;-1583.3333333333333;1583.3333276642254
0.3720000000000003;-1163233081.0;-1132371826.0;38736.0;-4799.99841738362;-4815.061347547612;17.387090168352188;2.4488144845236093e-06;-833.3333333333334;833.3333357821479
0.3760000000000003;-1182433076.0;-1151493530.0;-39555.0;-4799.998417364791;-4800.017824116788;-2.3538932726141866;4.707317202701233e-06;250.0;-249.9999952926828
0.3800000000000003;-1201633070.0;-1170730591.0;-2488.0;-4799.998417349589;-4809.097900784644;8.950203408432571;3.800550985033624e-06;-1250.0;1250.000003800551
0.3840000000000003;-1220833065.0;-1190104980.0;171906.0;-4799.998417341891;-4840.852072483203;51.16801512432539;1.924490788951516e-06;-2166.6666666666665;2166.6666685911573
0.3880000000000003;-1240033059.0;-1209171753.0;38685.0;-4799.9984173403645;-4750.750304291933;-46.927013054697454;3.815330273937434e-07;-2250.0;2250.000000381533
0.3920000000000003;-1259233054.0;-1228370361.0;37298.0;-4799.998417341446;-4803.59624696979;5.835709628455334;-2.703473001020029e-07;3166.6666666666665;-3166.666666937014
0.3960000000000003;-1278433049.0;-1247596436.0;63379.0;-4799.998417343544;-4813.727680403892;17.532003063090087;-5.245510692475364e-07;1750.0;-1750.000000524551
0.4000000000000003;-1297633043.0;-1266773071.0;40019.0;-4799.998417345071;-4755.59119317638;-42.00608416589239;-3.8176040106918663e-07;-416.6666666666667;416.6666662849063
0.4040000000000003;-1316833038.0;-1285680542.0;-252505.0;-4799.998417345644;-4756.443772884381;-58.704944459746;-1.432454155292362e-07;3250.0;-3250.0000001432454
0.4080000000000003;-1336033032.0;-1304884644.0;-248397.0;-4799.998417345899;-4788.314611904905;-26.587625440373813;-6.366462912410498e-08;1833.3333333333333;-1833.333333396998
0.4120000000000003;-1355233027.0;-1324165649.0;-167387.0;-4799.998417345644;-4821.27269935284;11.231062007107539;6.366462912410498e-08;1666.6666666666667;-1666.666666603002
0.4160000000000003;-1374433022.0;-1343270874.0;-262156.0;-4799.998417345708;-4774.797096380369;-40.93068096541538;-1.5916157281026244e-08;-6666.666666666667;6666.666666650751
0.4200000000000003;-1393633016.0;-1362782593.0;49568.0;-4799.9984173451985;-4871.325513116078;74.30117577041347;1.2732925824820995e-07;-3000.0;3000.0000001273293
0.4240000000000003;-1412833011.0;-1382063599.0;130579.0;-4799.998417345262;-4842.397553423764;50.233876078262256;-1.5916157281026244e-08;-3333.3333333333335;3333.3333333174173
0.4280000000000003;-1432033005.0;-1401218262.0;85248.0;-4799.998417345262;-4765.887353134088;-28.996184211140644;0.0;-1833.3333333333333;1833.3333333333333
0.43200000000000033;-1451233000.0;-1420405884.0;72875.0;-4799.998417345262;-4807.0072468006865;11.38132945543839;0.0;4083.3333333333335;-4083.3333333333335
0.43600000000000033;-1470432994.0;-1439544067.0;11064.0;-4799.998417345453;-4772.449746151202;-26.884831194051912;-4.774847184307873e-08;3166.6666666666665;-3166.666666714415
0.44000000000000034;-1489632989.0;-1458731689.0;-1309.0;-4799.998417345262;-4799.368351122881;-0.7086062224479974;4.774847184307873e-08;3916.6666666666665;-3916.666666618918
0.44400000000000034;-1508832984.0;-1477913818.0;-19174.0;-4799.998417345262;-4804.612835827542;3.463978482188395;0.0;-2083.3333333333335;2083.3333333333335
0.44800000000000034;-1528032978.0;-1497117920.0;-15067.0;-4799.998417345326;-4785.656463904989;-15.245973440264606;-1.5916157281026244e-08;-333.3333333333333;333.33333331741716
0.45200000000000035;-1547232973.0;-1516239624.0;-93358.0;-4799.998417345518;-4791.3407768172;-14.259120528102358;-4.7975845518521965e-08;250.0;-250.00000004797585
0.45600000000000035;-1566432967.0;-1535493164.0;-39812.0;-4799.998417345262;-4812.073762529857;9.68662518444944;6.389200279954821e-08;-500.0;500.000000063892
0.46000000000000035;-1585632962.0;-1554867554.0;134583.0;-4799.9984173451985;-4831.95729514961;40.03385780421195;1.5916157281026244e-08;-1916.6666666666667;1916.666666682583
0.46400000000000036;-1604832956.0;-1573967285.0;34320.0;-4799.998417345262;-4773.260631282629;-24.678586062605063;-1.5916157281026244e-08;-2833.3333333333335;2833.3333333174173
0.46800000000000036;-1624032951.0;-1593187866.0;54906.0;-4799.998417345518;-4801.006093845741;4.302036500495888;-6.389200279954821e-08;1416.6666666666667;-1416.6666667305587
0.47200000000000036;-1643232946.0;-1612485352.0;152398.0;-4799.998417345262;-4827.81915403806;36.96461669268956;6.389200279954821e-08;1750.0;-1749.999999936108
0.47600000000000037;-1662432940.0;-1631442261.0;-90688.0;-4799.998417345326;-4735.861572314676;-69.57812503074638;-1.5916157281026244e-08;1416.6666666666667;-1416.666666682583
0.48000000000000037;-1681632935.0;-1650503540.0;-229404.0;-4799.998417345262;-4782.031337178615;-31.731320166666592;1.5916157281026244e-08;4416.666666666667;-4416.666666650751
0.4840000000000004;-1700832929.0;-1669707642.0;-225296.0;-4799.998417345262;-4803.045160903078;-10.471016442214932;0.0;1666.6666666666667;-1666.6666666666667
0.4880000000000004;-1720032924.0;-1688928223.0;-204710.0;-4799.998417345518;-4798.370745913907;-13.910271431343062;-6.389200279954821e-08;-1250.0;1249.999999936108
0.4920000000000004;-1739232919.0;-1708170776.0;-162151.0;-4799.998417345262;-4832.004334177407;22.276856832034355;6.389200279954821e-08;-5250.0;5250.000000063892
0.4960000000000004;-1758432913.0;-1727627563.0;94641.0;-4799.998417345262;-4843.526078326558;49.20612098115089;0.0;-5250.0;5250.0
