Zeit[sec];Sollposition[°];Istposition[°];Positionsschleppfehler[°];Sollgeschwindigkeit[°/s];Istgeschwindigkeit[°/s];Geschwindigkeitsdifferenz[°/s];Sollbeschleunigung[°/s*s];Istbeschleunigung[°/s*s];Beschleunigungsdifferenz[°/s*s]
0.0;-9979199999.0;-9979200439.0;440.0;0.0;0.24451848579198124;-0.21811848576722645;0.0;0.0;0.0
0.004;-9979199999.0;-9979200439.0;440.0;0.0;1.1344918274506928;-1.108091827425938;0.0;0.0;0.0
0.008;-9979199999.0;-9979200439.0;440.0;0.0;-1.2947008128762245;1.3211008129009794;0.0;166.66666666666666;-166.66666666666666
0.012;-9979199999.0;-9979205933.0;5934.0;0.0;-3.854195513151586;4.210235513168149;0.0;0.0;0.0
0.016;-9979199999.0;-9979200439.0;440.0;0.0;1.9527854132279754;-1.9263854132032205;0.0;-83.33333333333333;83.33333333333333
0.02;-9979199999.0;-9979200439.0;440.0;0.0;0.12084952327609062;-0.09444952325133585;0.0;0.0;0.0
0.024;-9979199999.0;-9979205933.0;5934.0;0.0;-2.733260859079659;3.089300859096222;0.0;0.0;0.0
0.028;-9979199999.0;-9979200439.0;440.0;0.0;-0.8266357518434525;0.8530357518682072;0.0;83.33333333333333;-83.33333333333333
0.032;-9979199999.0;-9979205933.0;5934.0;0.0;-3.345131684295833;3.701171684312396;0.0;-83.33333333333333;83.33333333333333
0.036000000000000004;-9979199999.0;-9979205933.0;5934.0;0.0;-2.256682867914438;2.612722867931001;0.0;0.0;0.0
0.04000000000000001;-9979199999.0;-9979194946.0;-5053.0;0.0;2.0691927351281048;-2.3723727351807193;0.0;0.0;0.0
0.04400000000000001;-9979199999.0;-9979200439.0;440.0;0.0;-1.0533828545734287;1.0797828545981836;0.0;0.0;0.0
0.048000000000000015;-9979199999.0;-9979200439.0;440.0;0.0;-0.5041688788905739;0.5305688789153287;0.0;0.0;0.0
0.05200000000000002;-9979199999.0;-9979200439.0;440.0;8.656197209923802e-10;-1.3268531298041344;1.3532531298288892;2.1640493024809505e-07;83.33333333333333;-83.3333331169284
0.05600000000000002;-9979199999.0;-9979194946.0;-5053.0;5.770798139949201e-10;2.089050482995808;-2.392230482705218;-7.213497674936503e-08;-83.33333333333333;83.33333326119835
0.060000000000000026;-9979199999.0;-9979200439.0;440.0;0.0;-0.8087815406620502;0.8351815414329512;-1.4426995349873003e-07;0.0;-1.4426995349873003e-07
0.06400000000000003;-9979257958.0;-9979205933.0;5934.0;-14.48960326865258;-2.4192517366930844;2.7752917370596144;-3622.400817163145;-83.33333333333333;-3539.067483829812
0.06800000000000003;-9979292573.0;-9979194946.0;-28033.0;-8.653872864872847;2.32371754642576;-9.750598842446982;1458.9326009449333;83.33333333333333;1375.5992676116
0.07200000000000004;-9979329832.0;-9979216919.0;-54424.0;-9.314563080751618;-5.296159066177904;-10.06020826146709;-165.17255396969287;-83.33333333333333;-81.83922063635956
0.07600000000000004;-9979367969.0;-9979222412.0;-84731.0;-9.53445315094236;-1.6317670958042145;-12.402112849249994;-54.9725175476854;-250.0;195.02748245231462
0.08000000000000004;-9979407177.0;-9979227905.0;-116829.0;-9.801928642629909;-0.8908765580132604;-15.516738268107598;-66.86887292188715;-83.33333333333333;16.464460411446183
0.08400000000000005;-9979446591.0;-9979244385.0;-138906.0;-9.853517966794213;-5.5164213987216355;-12.457153186957356;-12.897331041076043;0.0;-12.897331041076043
0.08800000000000005;-9979483329.0;-9979249878.0;-172696.0;-9.184434663724891;-2.66451004550606;-17.518065718880006;167.27082576733034;83.33333333333333;83.937492433997
0.09200000000000005;-9979514891.0;-9979271851.0;-189075.0;-7.89052048709899;-6.49773857857287;-14.434696031726302;323.4785441564754;-166.66666666666666;490.145210823142
0.09600000000000006;-9979540126.0;-9979277344.0;-218284.0;-6.308846351947215;-2.480290188483894;-19.292088131592728;395.41853378794366;-250.0;645.4185337879437
0.10000000000000006;-9979558005.0;-9979288330.0;-236381.0;-4.469647136042723;-2.1031719015464185;-19.350681033013817;459.7998039761231;0.0;459.7998039761231
0.10400000000000006;-9979568429.0;-9979304810.0;-242257.0;-2.6058659266522493;-3.793371047906578;-16.330949174382205;465.94530234761845;0.0;465.94530234761845
0.10800000000000007;-9979573066.0;-9979310303.0;-251730.0;-1.1594475670026452;-2.8413193008974194;-16.003944265088037;361.604589912401;166.66666666666666;194.93792324573437
0.11200000000000007;-9979574393.0;-9979332275.0;-237931.0;-0.33177817182844904;-4.514080928184092;-11.805083312113144;206.91734879354902;-166.66666666666666;373.5840154602157
0.11600000000000008;-9979574570.0;-9979332275.0;-241290.0;-0.044214611164211805;0.30400680816173553;-15.621171499808607;71.89089016605931;83.33333333333333;-11.44244316727402
0.12000000000000008;-9979574922.0;-9979343262.0;-231193.0;-0.08798926937398979;-1.7239768901243806;-12.37021644831982;-10.943664552444497;83.33333333333333;-94.27699788577783
0.12400000000000008;-9979575972.0;-9979343262.0;-231446.0;-0.2624779403913054;-0.47746996996551755;-13.472545551773075;-43.6221677543289;333.3333333333333;-376.95550108766224
0.12800000000000009;-9979577732.0;-9979343262.0;-232074.0;-0.4399609034197171;0.04400405155867338;-14.125358860376931;-44.37074075710293;166.66666666666666;-211.0374074237696
0.1320000000000001;-9979579233.0;-9979343262.0;-233401.0;-0.3753002638441344;0.004904258735477924;-14.340789026178175;16.165159893895677;83.33333333333333;-67.16817343943765
0.1360000000000001;-9979578254.0;-9979348755.0;-229562.0;0.24483775540383163;-1.2162077014371753;-12.9707963295042;155.0345048119915;0.0;155.0345048119915
0.1400000000000001;-9979573032.0;-9979348755.0;-230080.0;1.3054087821621658;-0.13554654709994793;-13.799057552730236;265.14275668958356;0.0;265.14275668958356
0.1440000000000001;-9979562354.0;-9979359741.0;-216447.0;2.6694627643144178;-2.3942588132917884;-9.93085721179924;341.01349553806295;-83.33333333333333;424.3468288713963
0.1480000000000001;-9979544228.0;-9979359741.0;-209087.0;4.531709681793067;0.20579053619503976;-10.910989946764843;465.5617293696622;0.0;465.5617293696622
0.1520000000000001;-9979517506.0;-9979370728.0;-184501.0;6.680478342743672;-3.7956206684038043;-3.874617265950587;537.1921652376512;0.0;537.1921652376512
0.1560000000000001;-9979483391.0;-9979370728.0;-163010.0;8.528586709849817;-2.9952862892225385;-1.4125624325152275;462.02709177653634;83.33333333333333;378.693758443203
0.16000000000000011;-9979444414.0;-9979359741.0;-144395.0;9.744283337869016;1.3081011777445675;-2.5711671854805265;303.92415700479967;0.0;303.92415700479967
0.16400000000000012;-9979403034.0;-9979359741.0;-108395.0;10.345070298411237;0.20377032371610404;2.2922923439596334;150.19674013555527;0.0;150.19674013555527
0.16800000000000012;-9979361686.0;-9979354248.0;-73987.0;10.33686800621441;0.27037275932729243;5.265769998720976;-2.050573049206861;83.33333333333333;-85.38390638254019
0.17200000000000013;-9979323183.0;-9979348755.0;-38127.0;9.625805138258714;-1.2402283397465945;9.290906321356026;-177.76571698892374;166.66666666666666;-344.4323836555904
0.17600000000000013;-9979289311.0;-9979343262.0;-3399.0;8.46799192880764;0.2604651334434748;9.590585616403121;-289.45330236276857;0.0;-289.45330236276857
0.18000000000000013;-9979261081.0;-9979343262.0;33284.0;7.057521373776155;-0.005730053976178169;11.173686729574149;-352.61763875787125;-83.33333333333333;-269.2843054245379
0.18400000000000014;-9979199999.0;-9979343262.0;64946.0;15.270398146087208;-1.4312097821459175;13.243516236391125;2053.219193077763;-166.66666666666666;2219.88585974443
0.18800000000000014;-9979199999.0;-9979321289.0;84262.0;0.0;5.393430024445057;9.984353139260193;-3817.599536521802;166.66666666666666;-3984.266203188469
0.19200000000000014;-9979199999.0;-9979315796.0;115440.0;0.0;3.356587808571756;12.737613747723028;0.0;166.66666666666666;-166.66666666666666
0.19600000000000015;-9979199999.0;-9979315796.0;115797.0;0.0;-1.1340643107742072;8.171359299902965;0.0;166.66666666666666;-166.66666666666666
0.20000000000000015;-9979199999.0;-9979304810.0;104811.0;0.0;2.473853266231716;3.8148067337435725;0.0;-166.66666666666666;166.66666666666666
0.20400000000000015;-9979199999.0;-9979326782.0;126783.0;0.0;-2.7275651033297184;10.334545103337486;0.0;-333.3333333333333;333.3333333333333
0.20800000000000016;-9979199999.0;-9979315796.0;115797.0;0.0;1.7834799982085825;5.164340001782946;0.0;-166.66666666666666;166.66666666666666
0.21200000000000016;-9979199999.0;-9979332275.0;132276.0;0.0;-3.3652980825304986;11.301858082546387;0.0;-83.33333333333333;83.33333333333333
0.21600000000000016;-9979199999.0;-9979321289.0;121290.0;0.0;-0.6579317883625627;7.935331788362211;0.0;250.0;-250.0
0.22000000000000017;-9979199999.0;-9979326782.0;126783.0;0.0;-0.043493915617465975;7.650473915625234;0.0;-83.33333333333333;83.33333333333333
0.22400000000000017;-9979199999.0;-9979332275.0;132276.0;0.0;-4.9610328497961165;12.897592849812005;0.0;166.66666666666666;-166.66666666666666
0.22800000000000017;-9979199999.0;-9979310303.0;110304.0;0.0;2.8296701271012425;3.788569872951416;0.0;-83.33333333333333;83.33333333333333
0.23200000000000018;-9979199999.0;-9979321289.0;121290.0;0.0;-3.021923629753292;10.29932362975294;0.0;166.66666666666666;-166.66666666666666
0.23600000000000018;-9979199999.0;-9979304810.0;104811.0;0.0;1.4499677991047502;4.838692200870538;0.0;0.0;0.0
0.24000000000000019;-9979199999.0;-9979304810.0;104811.0;0.0;0.2985740589648485;5.99008594101044;0.0;0.0;0.0
0.2440000000000002;-9979199999.0;-9979304810.0;104811.0;0.0;-1.5108914140164853;7.799551413991773;0.0;0.0;0.0
0.2480000000000002;-9979199999.0;-9979293823.0;93824.0;0.0;1.9040938105806708;3.7253461893946893;0.0;-83.33333333333333;83.33333333333333
0.25200000000000017;-9979199999.0;-9979293823.0;93824.0;0.0;2.913672386839986;2.715767613135374;0.0;0.0;0.0
0.25600000000000017;-9979199999.0;-9979299316.0;99317.0;0.0;-2.63304505520314;8.59206505518662;0.0;0.0;0.0
0.2600000000000002;-9979199999.0;-9979293823.0;93824.0;0.0;2.5789762044399978;3.050463795535362;0.0;-83.33333333333333;83.33333333333333
0.2640000000000002;-9979199999.0;-9979304810.0;104811.0;0.0;-0.3194732361957431;6.608133236171032;0.0;0.0;0.0
0.2680000000000002;-9979199999.0;-9979293823.0;93824.0;0.0;1.322150088749826;4.307289911225534;0.0;0.0;0.0
0.2720000000000002;-9979199999.0;-9979288330.0;88331.0;0.0;3.123954594232142;2.1759054057350973;0.0;83.33333333333333;-83.33333333333333
0.2760000000000002;-9979199999.0;-9979288330.0;88331.0;0.0;1.9664629856199027;3.3333970143473364;0.0;0.0;0.0
0.2800000000000002;-9979199999.0;-9979288330.0;88331.0;0.0;2.0104632409363985;3.289396759030841;0.0;-83.33333333333333;83.33333333333333
0.2840000000000002;-9979199999.0;-9979288330.0;88331.0;0.0;3.043940895982087;2.2559191039851525;0.0;0.0;0.0
0.2880000000000002;-9979199999.0;-9979293823.0;93824.0;0.0;-0.007620467431843281;5.637060467407204;0.0;0.0;0.0
0.2920000000000002;-9979199999.0;-9979288330.0;88331.0;0.0;0.9258857995346189;4.37397420043262;0.0;0.0;0.0
0.2960000000000002;-9979199999.0;-9979288330.0;88331.0;0.0;0.5152859276384115;4.7845740723288275;0.0;0.0;0.0
0.3000000000000002;-9979199999.0;-9979288330.0;88331.0;0.0;0.16186899375915528;5.137991006208084;0.0;0.0;0.0
0.3040000000000002;-9979199999.0;-9979288330.0;88331.0;0.0;-0.297678577311337;5.597538577278576;0.0;0.0;0.0
0.3080000000000002;-9979199999.0;-9979288330.0;88331.0;0.0;-0.5961280476376415;5.895988047604881;0.0;0.0;0.0
0.3120000000000002;-9979199999.0;-9979288330.0;88331.0;0.0;-0.20933727274090053;5.50919727270814;0.0;0.0;0.0
0.3160000000000002;-9979199999.0;-9979288330.0;88331.0;0.0;-0.023330673262476922;5.323190673229716;0.0;0.0;0.0
0.32000000000000023;-9979199999.0;-9979288330.0;88331.0;0.0;-0.002600207343697548;5.302460207310937;0.0;0.0;0.0
0.32400000000000023;-9979199999.0;-9979288330.0;88331.0;0.0;-0.9283574738949537;6.228217473862193;0.0;0.0;0.0
0.32800000000000024;-9979199999.0;-9979288330.0;88331.0;0.0;-0.09217848619818687;5.3920384861654265;0.0;0.0;0.0
0.33200000000000024;-9979199999.0;-9979277344.0;77345.0;0.0;4.160748929060996;0.4799510709592534;0.0;0.0;0.0
0.33600000000000024;-9979199999.0;-9979282837.0;82838.0;0.0;-0.1935630323663354;5.163843032394705;0.0;0.0;0.0
0.34000000000000025;-9979199999.0;-9979277344.0;77345.0;0.0;-0.0587890294790268;4.699489029499277;0.0;0.0;0.0
0.34400000000000025;-9979199999.0;-9979282837.0;82838.0;0.0;-3.16557095361501;8.135850953643379;0.0;0.0;0.0
0.34800000000000025;-9979199999.0;-9979266357.0;66358.0;0.0;4.116514860793949;-0.13503486084287664;0.0;0.0;0.0
0.35200000000000026;-9979199999.0;-9979271851.0;71852.0;0.0;-0.40604059045761826;4.717160590469748;0.0;83.33333333333333;-83.33333333333333
0.35600000000000026;-9979199999.0;-9979271851.0;71852.0;0.0;-2.2441784383505583;6.555298438362688;0.0;83.33333333333333;-83.33333333333333
0.36000000000000026;-9979199999.0;-9979271851.0;71852.0;0.0;-3.824336462236941;8.13545646224907;0.0;0.0;0.0
0.36400000000000027;-9979199999.0;-9979260864.0;60865.0;0.0;1.265930463783443;2.385969536159508;0.0;-83.33333333333333;83.33333333333333
0.36800000000000027;-9979199999.0;-9979271851.0;71852.0;0.0;-1.748479197010398;6.059599197022528;0.0;-166.66666666666666;166.66666666666666
0.3720000000000003;-9979199999.0;-9979266357.0;66358.0;0.0;2.352279372125864;1.6292006278252078;0.0;0.0;0.0
0.3760000000000003;-9979199999.0;-9979266357.0;66358.0;0.0;0.7685029585361481;3.212977041414924;0.0;83.33333333333333;-83.33333333333333
0.3800000000000003;-9979199999.0;-9979266357.0;66358.0;0.0;0.3220310008078814;3.6594489991431907;0.0;83.33333333333333;-83.33333333333333
0.3840000000000003;-9979199999.0;-9979266357.0;66358.0;0.0;-3.337304320931435;7.318784320882507;0.0;83.33333333333333;-83.33333333333333
0.3880000000000003;-9979199999.0;-9979260864.0;60865.0;0.0;0.7613374241814017;2.8905625757615496;0.0;-83.33333333333333;83.33333333333333
0.3920000000000003;-9979199999.0;-9979255371.0;55372.0;0.0;3.2971512520834803;0.025168747920600865;0.0;0.0;0.0
0.3960000000000003;-9979199999.0;-9979266357.0;66358.0;0.0;-2.881591310724616;6.8630713106756875;0.0;-83.33333333333333;83.33333333333333
0.4000000000000003;-9979199999.0;-9979255371.0;55372.0;0.0;1.6030176632925868;1.7193023367114944;0.0;0.0;0.0
0.4040000000000003;-9979199999.0;-9979249878.0;49879.0;0.0;1.707753594391048;1.2849864056049134;0.0;83.33333333333333;-83.33333333333333
0.4080000000000003;-9979199999.0;-9979249878.0;49879.0;0.0;0.2640675421282649;2.7286724578676966;0.0;0.0;0.0
0.4120000000000003;-9979199999.0;-9979249878.0;49879.0;0.0;-2.1679878972619773;5.160727897257939;0.0;83.33333333333333;-83.33333333333333
0.4160000000000003;-9979199999.0;-9979249878.0;49879.0;0.0;-2.408505104891956;5.401245104887917;0.0;-83.33333333333333;83.33333333333333
0.4200000000000003;-9979199999.0;-9979238892.0;38893.0;0.0;-0.2358929947987199;2.5694729947784416;0.0;166.66666666666666;-166.66666666666666
0.4240000000000003;-9979199999.0;-9979238892.0;38893.0;0.0;2.0896139618083835;0.243966038171338;0.0;-166.66666666666666;166.66666666666666
0.4280000000000003;-9979199999.0;-9979238892.0;38893.0;0.0;-0.3866253402158618;2.7202053401955832;0.0;83.33333333333333;-83.33333333333333
0.43200000000000033;-9979199999.0;-9979238892.0;38893.0;0.0;0.4378199265822768;1.8957600733974447;0.0;-166.66666666666666;166.66666666666666
0.43600000000000033;-9979199999.0;-9979238892.0;38893.0;0.0;-0.4405765452682972;2.774156545248019;0.0;83.33333333333333;-83.33333333333333
0.44000000000000034;-9979199999.0;-9979233398.0;33399.0;0.0;0.611608850799501;1.3923311492576618;0.0;0.0;0.0
0.44400000000000034;-9979199999.0;-9979227905.0;27906.0;0.0;2.0346445345282556;-0.3602845345484622;0.0;0.0;0.0
0.44800000000000034;-9979199999.0;-9979244385.0;44386.0;0.0;-4.297302442461253;6.960462442449094;0.0;0.0;0.0
0.45200000000000035;-9979199999.0;-9979233398.0;33399.0;0.0;-1.9456392390206456;3.949579239077808;0.0;0.0;0.0
0.45600000000000035;-9979199999.0;-9979233398.0;33399.0;0.0;0.21960004884004594;1.7843399512171167;0.0;0.0;0.0
0.46000000000000035;-9979199999.0;-9979227905.0;27906.0;0.0;2.5834896928668023;-0.909129692887009;0.0;0.0;0.0
0.46400000000000036;-9979199999.0;-9979233398.0;33399.0;0.0;-0.8709475797042251;2.874887579761388;0.0;-83.33333333333333;83.33333333333333
0.46800000000000036;-9979199999.0;-9979222412.0;22413.0;0.0;5.677102792397141;-4.332322792425468;0.0;0.0;0.0
0.47200000000000036;-9979199999.0;-9979222412.0;22413.0;0.0;2.8267791696637867;-1.4819991696921135;0.0;83.33333333333333;-83.33333333333333
0.47600000000000037;-9979199999.0;-9979233398.0;33399.0;0.0;-0.11869544940441847;2.122635449461581;0.0;0.0;0.0
0.48000000000000037;-9979199999.0;-9979222412.0;22413.0;0.0;2.2028158675208687;-0.8580358675491955;0.0;0.0;0.0
0.4840000000000004;-9979199999.0;-9979222412.0;22413.0;0.0;2.8927414676845076;-1.5479614677128344;0.0;-83.33333333333333;83.33333333333333
0.4880000000000004;-9979199999.0;-9979222412.0;22413.0;0.0;2.158460570991039;-0.813680571019366;0.0;0.0;0.0
0.4920000000000004;-9979199999.0;-9979222412.0;22413.0;0.0;1.2570525311902165;0.08772746878145665;0.0;0.0;0.0
0.4960000000000004;-9979199999.0;-9979227905.0;27906.0;0.0;-1.556112903609872;3.230472903589665;0.0;0.0;0.0
0.5000000000000003;-9979199999.0;-9979227905.0;27906.0;0.0;-1.6924756681323052;3.3668356681120986;0.0;0.0;0.0
0.5040000000000003;-9979199999.0;-9979222412.0;22413.0;0.0;-0.3438520123884082;1.6886320123600813;0.0;0.0;0.0
0.5080000000000003;-9979199999.0;-9979222412.0;22413.0;0.0;-0.5225114586055278;1.867291458577201;0.0;0.0;0.0
0.5120000000000003;-9979199999.0;-9979216919.0;16920.0;0.0;0.5612322501316667;0.4539677498318866;0.0;0.0;0.0
0.5160000000000003;-9979199999.0;-9979222412.0;22413.0;0.0;-5.188599278211594;6.533379278183268;0.0;166.66666666666666;-166.66666666666666
0.5200000000000004;-9979199999.0;-9979200439.0;440.0;0.0;6.556766021303833;-6.530366021279078;0.0;0.0;0.0
0.5240000000000004;-9979199999.0;-9979211426.0;11427.0;0.0;0.4045641512796283;0.281055848675805;0.0;83.33333333333333;-83.33333333333333
0.5280000000000004;-9979199999.0;-9979216919.0;16920.0;0.0;-1.5689358828291298;2.5841358827926832;0.0;-250.0;250.0
0.5320000000000004;-9979199999.0;-9979216919.0;16920.0;0.0;0.9086857868507504;0.10651421311280285;0.0;0.0;0.0
0.5360000000000004;-9979199999.0;-9979216919.0;16920.0;0.0;0.3329428917989135;0.6822571081646398;0.0;-83.33333333333333;83.33333333333333
0.5400000000000004;-9979199999.0;-9979216919.0;16920.0;0.0;0.7867833787500859;0.2284166212134674;0.0;83.33333333333333;-83.33333333333333
0.5440000000000004;-9979199999.0;-9979222412.0;22413.0;0.0;-3.4293602379560473;4.77414023792772;0.0;0.0;0.0
0.5480000000000004;-9979199999.0;-9979211426.0;11427.0;0.0;2.512284346230328;-1.8266643462748948;0.0;0.0;0.0
0.5520000000000004;-9979199999.0;-9979211426.0;11427.0;0.0;1.4849247088879347;-0.7993047089325014;0.0;83.33333333333333;-83.33333333333333
0.5560000000000004;-9979199999.0;-9979216919.0;16920.0;0.0;-0.9056657607182861;1.9208657606818393;0.0;0.0;0.0
0.5600000000000004;-9979199999.0;-9979200439.0;440.0;0.0;3.995770185664296;-3.9693701856395416;0.0;166.66666666666666;-166.66666666666666
0.5640000000000004;-9979199999.0;-9979205933.0;5934.0;0.0;1.433956291295588;-1.077916291279025;0.0;-83.33333333333333;83.33333333333333
0.5680000000000004;-9979199999.0;-9979194946.0;-5053.0;0.0;2.3799778226837516;-2.6831578227363666;0.0;166.66666666666666;-166.66666666666666
0.5720000000000004;-9979199999.0;-9979205933.0;5934.0;0.0;-0.9260641418322921;1.2821041418488552;0.0;-166.66666666666666;166.66666666666666
0.5760000000000004;-9979199999.0;-9979194946.0;-5053.0;0.0;2.435984998486936;-2.739164998539551;0.0;0.0;0.0
0.5800000000000004;-9979199999.0;-9979194946.0;-5053.0;0.0;0.4923603669255972;-0.795540366978212;0.0;-83.33333333333333;83.33333333333333
0.5840000000000004;-9979199999.0;-9979194946.0;-5053.0;0.0;1.9095676864758133;-2.212747686528428;0.0;0.0;0.0
0.5880000000000004;-9979199999.0;-9979200439.0;440.0;0.0;1.0743979520648719;-1.047997952040117;0.0;-83.33333333333333;83.33333333333333
0.5920000000000004;-9979199999.0;-9979200439.0;440.0;0.0;-2.518966622978449;2.5453666230032037;0.0;83.33333333333333;-83.33333333333333
0.5960000000000004;-9979199999.0;-9979200439.0;440.0;0.0;-1.1640050738155843;1.1904050738403391;0.0;-83.33333333333333;83.33333333333333
