Zeit[sec];Sollposition[°];Istposition[°];Positionsschleppfehler[°];Sollgeschwindigkeit[°/s];Istgeschwindigkeit[°/s];Geschwindigkeitsdifferenz[°/s];Sollbeschleunigung[°/s*s];Istbeschleunigung[°/s*s];Beschleunigungsdifferenz[°/s*s]
0.0;0.0;-5493.0;5493.0;0.0;-5.478976170135144;5.808556170135144;0.0;83.33333333333333;-83.33333333333333
0.004;0.0;0.0;0.0;0.0;-2.317945080503057;2.317945080503057;0.0;0.0;0.0
0.008;0.0;0.0;0.0;0.0;-0.3616786640254806;0.3616786640254806;0.0;0.0;0.0
0.012;0.0;0.0;0.0;0.0;-1.780273105586671;1.780273105586671;0.0;-83.33333333333333;83.33333333333333
0.016;0.0;5493.0;-5493.0;0.0;1.0020459489953932;-1.3316259489953932;0.0;0.0;0.0
0.02;0.0;5493.0;-5493.0;0.0;1.00845976339862;-1.33803976339862;0.0;0.0;0.0
0.024;0.0;0.0;0.0;0.0;-0.4509885835581772;0.4509885835581772;0.0;0.0;0.0
0.028;0.0;5493.0;-5493.0;0.0;0.7648667280798991;-1.094446728079899;0.0;0.0;0.0
0.032;0.0;5493.0;-5493.0;0.0;0.7664378759835477;-1.0960178759835477;0.0;0.0;0.0
0.036000000000000004;-98.0;-5493.0;5493.0;-0.02464146652263834;-4.849045394351109;5.178625394351109;-6.160366630659585;0.0;-6.160366630659585
0.04000000000000001;-1080.0;5493.0;-5532.0;-0.2455687945418742;0.911183324851511;-1.2528732813048227;-55.231832004808965;0.0;-55.231832004808965
0.04400000000000001;-5908.0;5493.0;-5980.0;-1.207020421278748;2.3993182542109968;-2.870209570710856;-240.36290668421847;0.0;-240.36290668421847
0.048000000000000015;-21867.0;5493.0;-8481.0;-3.98961405368434;2.301989863723438;-3.4363247095222023;-695.648408101398;0.0;-695.648408101398
0.05200000000000002;-62351.0;0.0;-12207.0;-10.12098762886729;-1.6066663196384234;-1.4303954932382243;-1532.8433937957375;0.0;-1532.8433937957375
0.05600000000000002;-147022.0;5493.0;-43318.0;-21.167903615990006;1.6932229316902445;-10.696606545657634;-2761.728996780679;0.0;-2761.728996780679
0.060000000000000026;-299953.0;5493.0;-101177.0;-38.23260428993872;1.6374884857402905;-22.173099678397357;-4266.175168487179;0.0;-4266.175168487179
0.06400000000000003;-547222.0;-5493.0;-201668.0;-61.817204179461434;-5.874651282878146;-34.094491491022445;-5896.149972380678;0.0;-5896.149972380678
0.06800000000000003;-915699.0;0.0;-397095.0;-92.11934617871024;0.7585875976662827;-72.06782875391606;-7575.535499812203;-83.33333333333333;-7492.202166478869
0.07200000000000004;-1432738.0;-16479.0;-675389.0;-129.2596632708145;-2.615408521156234;-111.60127047506093;-9285.079273026067;-166.66666666666666;-9118.412606359401
0.07600000000000004;-2125313.0;-60425.0;-1058113.0;-173.14391413902112;-14.417648837524165;-155.73648113747402;-10971.06271705165;-333.3333333333333;-10637.729383718319
0.08000000000000004;-3018300.0;-131836.0;-1572468.0;-223.24655953530345;-22.411567455236497;-218.37797654794053;-12525.661349070582;-1083.3333333333333;-11442.328015737248
0.08400000000000005;-4132875.0;-340576.0;-2134734.0;-278.6437517546361;-56.877704088699566;-263.9580318136823;-13849.29805483317;-2583.3333333333335;-11265.964721499837
0.08800000000000005;-5485554.0;-1087646.0;-2367333.0;-338.1696775669599;-207.44158792783244;-179.51550255343918;-14881.481453080938;-8500.0;-6381.481453080937
0.09200000000000005;-7087650.0;-2455444.0;-2207216.0;-400.5241373952766;-328.8823060960573;-105.4709122274142;-15588.614957079188;-22416.666666666668;6828.05170958748
0.09600000000000006;-8945438.0;-3872681.0;-2240153.0;-464.44695275703776;-353.3395490616086;-143.6130928172875;-15980.703840440285;-26416.666666666668;10435.962826226383
0.10000000000000006;-11061270.0;-5603027.0;-2211820.0;-528.9580319813297;-442.6502689138087;-115.56210781535952;-16127.769806072976;-23166.666666666668;7038.896860593692
0.10400000000000006;-13435183.0;-7690430.0;-2083017.0;-593.4781912447851;-522.8406209777723;-91.79043895982397;-16130.039815863853;-16666.666666666668;536.6268508028149
0.10800000000000007;-16066303.0;-10096436.0;-1893656.0;-657.779866431622;-616.0129149082353;-51.767717488736025;-16075.418796709244;-17083.333333333332;1007.9145366240887
0.11200000000000007;-18953720.0;-13002319.0;-1462152.0;-721.8542235723104;-724.037825572277;17.713952637770376;-16018.589285172084;-24000.0;7981.410714827916
0.11600000000000008;-22096846.0;-15946655.0;-1249047.0;-785.7815285923627;-733.785800085854;-23.964600162172246;-15981.82625501309;-21250.0;5268.173744986911
0.12000000000000008;-25495435.0;-19044800.0;-1138202.0;-849.6472482311665;-783.5082304176613;-31.6088550445877;-15966.429909700935;-16000.0;33.570090299065214
0.12400000000000008;-29149463.0;-22521973.0;-903944.0;-913.5069143393922;-874.8197042360054;9.854349761578078;-15964.916527056432;-12500.0;-3464.916527056431
0.12800000000000009;-33058997.0;-26240845.0;-683441.0;-977.3835072060356;-931.6937678020065;16.094912967220466;-15969.14821666084;-13666.666666666666;-2302.481549994175
0.1320000000000001;-37224113.0;-30031128.0;-646994.0;-1041.278750337895;-951.9063873406669;-25.37206026748322;-15973.810782964847;-16166.666666666666;192.85588370181904
0.1360000000000001;-41644855.0;-34008179.0;-679314.0;-1105.1856261549176;-1004.1205150124775;-38.98102082083835;-15976.718954255659;-12083.333333333334;-3893.3856209223254
0.1400000000000001;-46321242.0;-38375244.0;-577219.0;-1169.0965926188364;-1094.2723433817087;-6.603238482475263;-15977.74161597971;-11916.666666666666;-4061.074949313044
0.1440000000000001;-51253270.0;-42918091.0;-554976.0;-1233.0069549886364;-1145.2388688714452;-18.210562527074444;-15977.590592449986;-14333.333333333334;-1644.2572591166513
0.1480000000000001;-56440930.0;-47702637.0;-546676.0;-1296.9150395578743;-1206.3024543093695;-20.559680070556624;-15977.021142309468;-16500.0;522.9788576905321
0.1520000000000001;-61884215.0;-52915649.0;-365549.0;-1360.8210538280348;-1301.9266033291296;22.022626152122257;-15976.503567540134;-17500.0;1523.496432459865
0.1560000000000001;-67583119.0;-58353882.0;-214829.0;-1424.7258837928591;-1355.58050740395;20.812453152452008;-15976.207491206082;-18583.333333333332;2607.1258421272496
0.16000000000000011;-73537640.0;-63907471.0;-204376.0;-1488.6303435914645;-1393.045692353023;-5.000738740731094;-15976.114949651332;-17166.666666666668;1190.5517170153353
0.16400000000000012;-79747780.0;-69735718.0;-174884.0;-1552.5349020705473;-1460.4768749052353;0.295273672487383;-15976.13961977072;-14000.0;-1976.13961977072
0.16800000000000012;-86213539.0;-75728760.0;-236214.0;-1616.4397077371336;-1502.6003995032847;-25.165502822277404;-15976.201416646574;-11833.333333333334;-4142.86808331324
0.17200000000000013;-92934918.0;-81996460.0;-278505.0;-1680.3447234915038;-1557.800924844047;-36.40709338837519;-15976.253938592548;-13916.666666666666;-2059.587271925883
0.17600000000000013;-99911918.0;-88406982.0;-433594.0;-1744.2498527133419;-1605.419258044332;-61.99898770283539;-15976.282305459506;-13166.666666666666;-2809.61563879284
0.18000000000000013;-107144539.0;-95163574.0;-498232.0;-1808.155012735488;-1698.4473858353665;-36.754199423266755;-15976.290005536555;-13583.333333333334;-2392.956672203221
0.18400000000000014;-114632780.0;-102321167.0;-417491.0;-1872.0601586812104;-1780.9345795922038;-13.327686435259011;-15976.286486430581;-17500.0;1523.7135135694189
0.18800000000000014;-122376641.0;-109621582.0;-449549.0;-1935.9652782182234;-1816.289265652535;-43.80163463552117;-15976.279884253245;-19250.0;3273.7201157467553
0.19200000000000014;-130376123.0;-117119751.0;-539472.0;-1999.8703767722154;-1883.4091280937246;-45.98228775189227;-15976.274638498013;-16583.333333333332;607.0586948353202
0.19600000000000015;-138631225.0;-124974976.0;-527960.0;-2063.7754647107054;-1969.6134864964665;-22.992320721463557;-15976.271984622486;-14333.333333333334;-1642.9386512891515
0.20000000000000015;-147141948.0;-133291626.0;-310644.0;-2127.680550313867;-2080.1891947528866;36.717253066897456;-15976.271400790438;-17750.0;1773.7285992095622
0.20400000000000015;-155908291.0;-141800537.0;-156687.0;-2191.5856377933783;-2121.7037139342815;23.564105173524695;-15976.271869877792;-22333.333333333332;6357.06146345554
0.20800000000000016;-164930254.0;-150287476.0;-280322.0;-2255.490728094244;-2127.2399289991727;-42.222866122371215;-15976.272575216399;-16916.666666666668;940.3940914502691
0.21200000000000016;-174207838.0;-159065552.0;-368441.0;-2319.395820490841;-2196.8387910531083;-41.816232655577096;-15976.273099149239;-10833.333333333334;-5142.939765815905
0.21600000000000016;-183741042.0;-168156738.0;-399070.0;-2383.3009138755547;-2267.6013881002664;-36.796466723677895;-15976.27334617846;-10833.333333333334;-5142.940012845125
0.22000000000000017;-193529866.0;-177467651.0;-465593.0;-2447.206007421204;-2329.0165581761644;-43.27776942386936;-15976.273386412344;-14666.666666666666;-1309.6067197456787
0.22400000000000017;-203574311.0;-187009277.0;-557022.0;-2511.11110073551;-2393.467425698673;-48.217735344091125;-15976.27332857644;-16583.333333333332;607.0600047568923
0.22800000000000017;-213874377.0;-196979370.0;-475605.0;-2575.0161937525786;-2502.3898562656573;1.6846217699103363;-15976.273254267198;-16500.0;523.7267457328016
0.23200000000000018;-224430062.0;-207432861.0;-166411.0;-2638.921286562274;-2605.7469070217935;59.68821932823357;-15976.27320242384;-22000.0;6023.72679757616
0.23600000000000018;-235241368.0;-217941284.0;-57905.0;-2702.8263792814064;-2620.144137772842;16.690717142691028;-15976.273179783107;-22666.666666666668;6690.393486883561
0.24000000000000019;-246308295.0;-228422241.0;-232485.0;-2766.7314719918304;-2625.806259256726;-52.02705414842467;-15976.273177606003;-15166.666666666666;-809.6065109393376
0.2440000000000002;-257630841.0;-239161377.0;-404507.0;-2830.6365647295765;-2695.632811391463;-56.42691472989918;-15976.273184436537;-7000.0;-8976.273184436537
0.2480000000000002;-269209009.0;-250323486.0;-409176.0;-2894.541657498294;-2795.245807685588;-20.999151157082906;-15976.273192179406;-9333.333333333334;-6642.939858846072
0.25200000000000017;-281042796.0;-261793213.0;-361848.0;-2958.446750287369;-2868.595772692033;-8.71459890050437;-15976.27319726871;-17916.666666666668;1940.3934693979572
0.25600000000000017;-293132204.0;-273532104.0;-300976.0;-3022.351843084625;-2934.290778957674;-3.2723654114715828;-15976.273199314051;-21333.333333333332;5357.060134019282
0.2600000000000002;-305477232.0;-285721436.0;-45282.0;-3086.2569358819524;-3046.1259559952077;59.9993588338657;-15976.273199331787;-21000.0;5023.726800668214
0.2640000000000002;-318077881.0;-297976685.0;20707.0;-3150.162028676147;-3054.1078183251398;8.035468366557325;-15976.273198548712;-19500.0;3523.7268014512892
0.2680000000000002;-330934150.0;-310083618.0;-317240.0;-3214.0671214672093;-3043.8554503919436;-86.39881236272186;-15976.273197765522;-10583.333333333334;-5392.939864432188
0.2720000000000002;-344046040.0;-322728882.0;-372477.0;-3277.972214256223;-3167.885575220924;-29.5880003267157;-15976.273197253477;-8500.0;-7476.273197253477
0.2760000000000002;-357413550.0;-335692749.0;-364731.0;-3341.8773070445377;-3237.825192282574;-23.088716055332043;-15976.273197078626;-12000.0;-3976.2731970786263
0.2800000000000002;-371036680.0;-348975220.0;-294001.0;-3405.7823998329336;-3332.3585368075683;11.78333568091466;-15976.273197098977;-20333.333333333332;4357.060136234356
0.2840000000000002;-384915431.0;-362609253.0;-127330.0;-3469.6874926216233;-3405.0935680755306;30.613534160523614;-15976.273197172417;-23416.666666666668;7440.39346949425
0.2880000000000002;-399049700.0;-376122437.0;-337128.0;-3533.567147617113;-3382.03860588683;-68.93440081668268;-15969.913748872386;-15333.333333333334;-636.5804155390524
0.2920000000000002;-413438830.0;-389965210.0;-472917.0;-3597.2823301601156;-3473.2644145336194;-49.750939271051266;-15928.795635750703;-11166.666666666666;-4762.128969084037
0.2960000000000002;-428080826.0;-404324341.0;-347606.0;-3660.4988442394897;-3580.8187284161177;1.5074413239181013;-15804.128519843516;-13583.333333333334;-2220.7951865101822
0.3000000000000002;-442971516.0;-418875732.0;-284109.0;-3722.6724761311816;-3648.226374222389;9.206475135546043;-15543.407972922978;-17750.0;2206.592027077022
0.3040000000000002;-458103392.0;-433839111.0;-59848.0;-3782.9688011008416;-3736.7064682044343;48.3362796450765;-15074.081242414992;-23916.666666666668;8842.585424251676
0.3080000000000002;-473464040.0;-448753052.0;-130766.0;-3840.161726462403;-3731.0967648916494;-22.963923335558775;-14298.231340390317;-16916.666666666668;2618.4353262763516
0.3120000000000002;-489035240.0;-463738403.0;-366582.0;-3892.799789851887;-3764.7989885091442;-62.487535078978;-13159.51584737104;-9833.333333333334;-3326.182514037706
0.3160000000000002;-504793580.0;-479289551.0;-258222.0;-3939.5848731111587;-3893.032832344832;16.8427310152847;-11696.270814817923;-10250.0;-1446.2708148179217
0.32000000000000023;-520712095.0;-495060425.0;-131513.0;-3979.62857828285;-3945.077384945564;26.145686750975983;-10010.926292922817;-15166.666666666666;5155.740373743848
0.32400000000000023;-536762100.0;-510963135.0;-49553.0;-4012.500946746632;-3970.4496653252854;12.289040143674356;-8218.092115945525;-19916.666666666668;11698.574550721143
0.32800000000000024;-552914918.0;-526772461.0;-209938.0;-4038.204284564715;-3952.1255845328865;-52.898023130103866;-6425.834454520782;-12250.0;5824.165545479218
0.33200000000000024;-569143345.0;-542779541.0;-292856.0;-4057.1067018228146;-4008.500237255282;-31.570429787601825;-4725.604314524844;-3916.6666666666665;-808.9376478581776
0.33600000000000024;-585422704.0;-558967896.0;-286694.0;-4069.8394385046945;-4051.5443630688164;-11.205469093435113;-3183.1841704699855;-5166.666666666667;1983.4824961966815
0.34000000000000025;-601731952.0;-575601196.0;98428.0;-4077.3119156634725;-4156.873176068518;100.73457945146902;-1868.119289694505;-11416.666666666666;9548.547376972161
0.34400000000000025;-618055122.0;-592014771.0;221092.0;-4080.7923019288996;-4087.905524243847;28.443491182149955;-870.0965663567786;-15000.0;14129.903433643221
0.34800000000000025;-634382105.0;-608071289.0;-36983.0;-4081.745509454545;-4021.8671016776443;-58.99992871317909;-238.30188141130293;-1666.6666666666667;1428.3647852553638
0.35200000000000026;-650707974.0;-624331055.0;-101817.0;-4081.4670513576375;-4078.2202322663065;-9.038628664373391;69.61452422683578;6250.0;-6180.385475773164
0.35600000000000026;-667031326.0;-640920410.0;161019.0;-4080.837695658785;-4139.450323835297;67.48194386561227;157.33892471314448;2583.3333333333335;-2425.994408620189
0.36000000000000026;-683352552.0;-657355957.0;271688.0;-4080.306379541282;-4100.290993069073;35.3731198219366;132.82902937578456;-7250.0;7382.829029375785
0.36400000000000027;-699672578.0;-673368530.0;-38262.0;-4080.0064599997436;-4006.4958501527276;-76.43059459831966;74.97988538455047;-2083.3333333333335;2158.313218717884
0.36800000000000027;-715992192.0;-689551392.0;-176163.0;-4079.90324576569;-4057.3462092208806;-33.41415008879767;25.803558513416647;8750.0;-8724.196441486583
0.3720000000000003;-732311834.0;-705893555.0;-153870.0;-4079.9102920909045;-4094.449620462143;5.250125952416511;-1.761581303640014;5666.666666666667;-5668.428247970307
0.3760000000000003;-748631649.0;-722460938.0;93886.0;-4079.9535075131926;-4137.699585868378;63.426101573942105;-10.803855572021348;-5750.0;5739.196144427979
0.3800000000000003;-764951616.0;-738682251.0;-4512.0;-4079.991499946148;-4053.721605932127;-26.476499111407975;-9.49810823885855;-7583.333333333333;7573.8352250944745
0.3840000000000003;-781271661.0;-754870605.0;-136032.0;-4080.011149570246;-4061.423150445539;-26.707087258319007;-4.912406024459415;2333.3333333333335;-2338.245739357793
0.3880000000000003;-797591722.0;-771333618.0;6984.0;-4080.0151218797164;-4110.596138889858;31.01611078669748;-0.9930773676387616;2750.0;-2750.9930773676388
0.3920000000000003;-813911767.0;-787928467.0;281782.0;-4080.010976312296;-4144.986643198364;81.88095380399773;1.0363918551092866;-2500.0;2501.0363918551093
0.3960000000000003;-830231788.0;-804232178.0;265438.0;-4080.005076910458;-4063.03266562164;-1.0545093301179804;1.474850459544541;-6916.666666666667;6918.1415171262115
0.4000000000000003;-846551792.0;-820310669.0;23894.0;-4080.0007273649476;-4020.2334136869295;-58.3416078951509;1.0873863775486825;4083.3333333333335;-4082.245946955785
0.4040000000000003;-862871787.0;-836493530.0;-113259.0;-4079.9986742993983;-4052.0530923621814;-34.74583458825964;0.5132663873155252;9000.0;-8999.486733612684
0.4080000000000003;-879191781.0;-852885132.0;-41658.0;-4079.998332412314;-4101.060101268698;18.560682426539643;0.08547177105810988;4083.3333333333335;-4083.2478615622754
0.4120000000000003;-895511777.0;-869348145.0;101360.0;-4079.998805185341;-4100.812674919427;26.89572414323038;-0.11819325675332948;-6583.333333333333;6583.21514007658
0.4160000000000003;-911831776.0;-885454102.0;-112677.0;-4079.9994186621693;-4024.2281382147116;-62.53100364796501;-0.1533692070552206;-3750.0;3749.846630792945
0.4200000000000003;-928151776.0;-901576538.0;-310239.0;-4079.999849523537;-4048.3944423128314;-50.218943336330085;-0.10771534186915233;5166.666666666667;-5166.774382008536
0.4240000000000003;-944471777.0;-917946167.0;-260609.0;-4080.0000400726053;-4086.4223461980905;-9.213779699294719;-0.04763726713008509;3750.0;-3750.04763726713
0.4280000000000003;-960791778.0;-934469604.0;-57172.0;-4080.0000609352664;-4130.015051269763;46.58480872108021;-0.005215665282776172;-3333.3333333333335;3333.3281176680507
0.43200000000000033;-977111779.0;-950877686.0;30909.0;-4080.000006330242;-4095.8736465269076;17.728139299082613;0.01365125615393481;-9416.666666666666;9416.680317922819
0.43600000000000033;-993431779.0;-967022095.0;-144683.0;-4079.9999431405045;-4042.028940515731;-46.65207864724562;0.015797434343767236;833.3333333333334;-833.3175358989896
0.44000000000000034;-1009751780.0;-983204956.0;-281823.0;-4079.9999012868752;-4058.0954960325143;-38.813865563934996;0.010463407306815498;6416.666666666667;-6416.65620325936
0.44400000000000034;-1026071780.0;-999827271.0;20492.0;-4079.9998843140497;-4158.279227332825;79.50882041637306;0.0042432063764863415;1833.3333333333333;-1833.3290901269568
0.44800000000000034;-1042391780.0;-1016339722.0;212942.0;-4079.999883895552;-4114.85142306479;47.62804826214824;0.00010462440513947513;-7916.666666666667;7916.666771291072
0.45200000000000035;-1058711781.0;-1032396240.0;-50540.0;-4079.99989023964;-4019.6719920005744;-63.36029224699814;-0.0015860219946262077;-2583.3333333333335;2583.331747311339
0.45600000000000035;-1075031781.0;-1048628540.0;-138240.0;-4079.9998968012483;-4059.926329546004;-28.367956867330122;-0.0016404020470872638;6083.333333333333;-6083.33497373538
0.46000000000000035;-1091351781.0;-1064970703.0;-116078.0;-4079.9999008866675;-4084.1560734514783;-2.8084993525581012;-0.0010213548193860333;6916.666666666667;-6916.667688021486
0.46400000000000036;-1107671782.0;-1081483154.0;76373.0;-4079.999902390298;-4128.290732648105;52.87321426550034;-0.0003759075752896024;-3333.3333333333335;3333.332957425758
0.46800000000000036;-1123991782.0;-1097759399.0;32618.0;-4079.9999022783322;-4059.691284656017;-18.35153680286612;2.799140474962769e-05;-6833.333333333333;6833.333361324738
0.47200000000000036;-1140311783.0;-1113964233.0;-82549.0;-4079.999901566441;-4068.230309599069;-16.72253273802744;0.00017797276541386964;2750.0;-2749.9998220272346
0.47600000000000037;-1156631783.0;-1130421753.0;54971.0;-4079.9999008937634;-4121.436525155646;44.734883158918365;0.00016816943571029697;1666.6666666666667;-1666.666498497231
0.48000000000000037;-1172951783.0;-1147082520.0;395737.0;-4079.999900499557;-4163.80456423147;107.54888292758096;9.855159532889957e-05;-2916.6666666666665;2916.666765218262
0.4840000000000004;-1189271784.0;-1163435669.0;428886.0;-4079.9999003699118;-4066.714490778378;12.44775003697896;3.241132162656868e-05;-8333.333333333334;8333.333365744656
0.4880000000000004;-1205591784.0;-1179409790.0;83007.0;-4079.9999003965545;-3999.7017149586127;-75.31776549184724;-6.66068444843404e-06;4750.0;-4750.000006660684
