Zeit[sec];Sollposition[°];Istposition[°];Positionsschleppfehler[°];Sollgeschwindigkeit[°/s];Istgeschwindigkeit[°/s];Geschwindigkeitsdifferenz[°/s];Sollbeschleunigung[°/s*s];Istbeschleunigung[°/s*s];Beschleunigungsdifferenz[°/s*s]
0.0;0.0;0.0;0.0;-0.0;3.2528345577272613;-3.2528345577272613;0.0;0.0;0.0
0.004;0.0;0.0;0.0;-0.0;3.023950965009367;-3.023950965009367;0.0;0.0;0.0
0.008;0.0;0.0;0.0;-0.0;2.633491009351996;-2.633491009351996;0.0;0.0;0.0
0.012;0.0;-5493.0;5493.0;-0.0;-0.6677746322223976;1.1951026322223977;0.0;0.0;0.0
0.016;0.0;-5493.0;5493.0;-0.0;0.06622645388845151;0.4611015461115485;0.0;0.0;0.0
0.02;0.0;-5493.0;5493.0;-0.0;-0.38788311601521364;0.9152111160152137;0.0;0.0;0.0
0.024;0.0;-5493.0;5493.0;-0.0;-0.8086633932686543;1.3359913932686545;0.0;0.0;0.0
0.028;0.0;0.0;0.0;-0.0;2.5671401547991906;-2.5671401547991906;0.0;0.0;0.0
0.032;0.0;-10986.0;10986.0;-0.0;-2.201018047343803;3.255674047343803;0.0;0.0;0.0
0.036000000000000004;-151.0;-5493.0;5493.0;-0.03791665185807213;-1.1763682959708706;1.7036962959708706;-9.479162964518032;0.0;-9.479162964518032
0.04000000000000001;-1663.0;-5493.0;5433.0;-0.3778649489589627;-0.9207633607885816;1.4272980007745413;-84.98707427522265;0.0;-84.98707427522265
0.04400000000000001;-9092.0;-5493.0;4744.0;-1.857282847072618;-0.6313258220434342;0.9142711499589821;-369.8544745284138;0.0;-369.8544745284138
0.048000000000000015;-118618.0;-5493.0;893.0;-27.381552081623465;-0.9043269646471641;0.027615819544120845;-6381.067308637712;0.0;-6381.067308637712
0.05200000000000002;-286509.0;-5493.0;-46981.0;-41.97284365807025;0.8853634316655994;-17.36412774928408;-3647.822894111697;0.0;-3647.822894111697
0.05600000000000002;-578375.0;-27466.0;-157076.0;-72.96636813156526;-8.280298841882422;-39.81621209582512;-7748.381118373752;-83.33333333333333;-7665.047785040419
0.060000000000000026;-1013344.0;-76904.0;-324342.0;-108.74216271978989;-18.379659711045722;-66.93296827786466;-8943.948647056157;-583.3333333333334;-8360.615313722823
0.06400000000000003;-1583595.0;-258179.0;-490944.0;-142.56287061717742;-53.48016788900599;-80.61976511753801;-8455.176974346883;-2250.0;-6205.176974346884
0.06800000000000003;-2304840.0;-769043.0;-467848.0;-180.31115997377253;-130.0982393224332;-36.757089833694636;-9437.072339148777;-7166.666666666667;-2270.4056724821103
0.07200000000000004;-3220297.0;-1395264.0;-470952.0;-228.8642078401148;-155.80004432068685;-46.74265699902307;-12138.261966585567;-11583.333333333334;-554.9286332522331
0.07600000000000004;-4380589.0;-2191772.0;-471806.0;-290.07318437156374;-203.35132814611066;-41.2825512823448;-15302.244132862235;-12333.333333333334;-2968.910799528901
0.08000000000000004;-5831042.0;-3208008.0;-466963.0;-362.6130691955049;-257.2506467947759;-40.425921334958275;-18134.971205985294;-11666.666666666666;-6468.3045393186285
0.08400000000000005;-7607137.0;-4493408.0;-455464.0;-444.023774027939;-323.36808650226976;-38.83192641942236;-20352.676208108518;-11833.333333333334;-8519.342874775186
0.08800000000000005;-9734251.0;-5921631.0;-605106.0;-531.7785209274042;-359.7076424061016;-92.84863682556005;-21938.6867248663;-13833.333333333334;-8105.353391532967
0.09200000000000005;-12229347.0;-7619019.0;-821079.0;-623.7738274249158;-427.19510606131604;-129.96862209571287;-22998.8266243779;-13500.0;-9498.826624377898
0.09600000000000006;-15104059.0;-9761353.0;-949701.0;-718.678025528104;-534.7001904526494;-124.21014010423983;-23726.049525797036;-16000.0;-7726.049525797038
0.10000000000000006;-18366341.0;-12266235.0;-1088271.0;-815.5705684460611;-631.1518963745975;-134.18494372112798;-24223.135729489288;-19916.666666666668;-4306.469062822618
0.10400000000000006;-22020932.0;-15205078.0;-1175581.0;-913.6477073015982;-745.0806963455007;-124.31340521782931;-24519.284713884274;-24083.333333333332;-435.951380550943
0.10800000000000007;-26069967.0;-18638306.0;-1157908.0;-1012.2586991717181;-862.3262923547137;-102.72176744861304;-24652.74796752999;-26666.666666666668;2013.9186991366778
0.11200000000000007;-30513882.0;-22357178.0;-1247720.0;-1110.9786508525178;-937.6240173254497;-134.32785672042144;-24679.98792019992;-26250.0;1570.0120798000796
0.11600000000000008;-35352301.0;-26586914.0;-1221271.0;-1209.6046390322324;-1064.1060073012277;-103.9578274321932;-24656.49704492864;-26250.0;1593.502955071358
0.12000000000000008;-40584664.0;-31289063.0;-1117138.0;-1308.0906504805762;-1175.3696153044668;-81.37950961336287;-24621.50286208595;-26750.0;2128.497137914053
0.12400000000000008;-46210540.0;-36177979.0;-1220522.0;-1406.4690661502543;-1228.8704965321103;-136.37453254597108;-24594.603917419532;-25416.666666666668;822.0627492471344
0.12800000000000009;-52229706.0;-41682129.0;-1102448.0;-1504.791461992514;-1382.4128842130965;-69.94121244443204;-24580.59896056494;-25166.666666666668;586.0677061017263
0.1320000000000001;-58642099.0;-47609253.0;-954828.0;-1603.0980093312112;-1475.2498975935453;-61.289514191415265;-24576.636834674275;-26583.333333333332;2006.696498659057
0.1360000000000001;-65447737.0;-53728638.0;-1008213.0;-1701.4095461215322;-1535.6707174672574;-104.31009471710877;-24577.88419758026;-25250.0;672.1158024197393
0.1400000000000001;-72646664.0;-60347900.0;-954956.0;-1799.7316675586326;-1666.8312900203803;-66.34546860461774;-24580.530359275086;-24250.0;-330.53035927508745
0.1440000000000001;-80238913.0;-67313232.0;-948890.0;-1898.0620660704867;-1742.2842990057527;-88.62582782156164;-24582.599627963533;-22250.0;-2332.599627963532
0.1480000000000001;-88224499.0;-74542236.0;-1072455.0;-1996.3963819461815;-1814.5286563793438;-126.56905159646749;-24583.578968923688;-22500.0;-2083.578968923689
0.1520000000000001;-96603424.0;-82331543.0;-1029044.0;-2094.731240984657;-1952.9188650831468;-82.3432900795874;-24583.71475961883;-23916.666666666668;-667.0480929521609
0.1560000000000001;-105375685.0;-90357056.0;-1142765.0;-2193.065027845616;-2012.8804373899816;-131.6334420506996;-24583.446715239803;-23166.666666666668;-1416.780048573134
0.16000000000000011;-114541275.0;-98981323.0;-1051070.0;-2291.397480469263;-2155.22293362501;-78.8226565699174;-24583.113155911746;-25500.0;916.8868440882534
0.16400000000000012;-124100191.0;-107918701.0;-1039597.0;-2389.7289869981755;-2241.693113032764;-89.58433330116668;-24582.876632228137;-27000.0;2417.1233677718647
0.16800000000000012;-134052432.0;-117410889.0;-866642.0;-2488.0600458412064;-2374.4034722081556;-38.60237945544077;-24582.764710757714;-26583.333333333332;2000.5686225756172
0.17200000000000013;-144397996.0;-127331543.0;-658547.0;-2586.391005015815;-2491.119405771464;-0.24066046411280695;-24582.739793652196;-28916.666666666668;4333.926873014473
0.17600000000000013;-155136885.0;-137471924.0;-624048.0;-2684.7220160888332;-2527.6286059992367;-58.75057818555524;-24582.752768254522;-27000.0;2417.2472317454776
0.18000000000000013;-166269098.0;-147854004.0;-741175.0;-2783.0530922362573;-2605.868716524691;-90.08563999561147;-24582.769036856007;-20833.333333333332;-3749.435703522675
0.18400000000000014;-177794635.0;-158538208.0;-949502.0;-2881.384185345457;-2690.565351093343;-123.71943399687143;-24582.773277299908;-16916.666666666668;-7666.106610633239
0.18800000000000014;-189713497.0;-169793701.0;-979865.0;-2979.7152406679083;-2801.2947354246676;-114.23598015675589;-24582.76383061286;-19750.0;-4832.763830612862
0.19200000000000014;-202025682.0;-181208496.0;-1244249.0;-3078.046221201712;-2859.4792000002653;-179.76345760911363;-24582.745133450884;-22750.0;-1832.745133450885
0.19600000000000015;-214731191.0;-193189087.0;-1336162.0;-3176.3771104936873;-3021.082282792395;-125.31504870831077;-24582.722322993846;-23666.666666666668;-916.0556563271775
0.20000000000000015;-227830024.0;-205790405.0;-1200671.0;-3274.7079057469714;-3147.9007015114107;-83.82043878536024;-24582.698813321033;-27583.333333333332;3000.6345200123014
0.20400000000000015;-241321198.0;-218605957.0;-1244270.0;-3372.7933702834416;-3201.258199631483;-132.97929720700722;-24521.366134117558;-29583.333333333332;5061.9671992157755
0.20800000000000016;-255200874.0;-231954346.0;-1147967.0;-3469.918859423719;-3357.1328791350707;-66.0930557117913;-24281.372285069323;-28333.333333333332;4051.9610482640082
0.21200000000000016;-269462161.0;-245632324.0;-1112899.0;-3565.32160981493;-3415.0414978779822;-102.52419574503847;-23850.68759780279;-25666.666666666668;1815.9790688638786
0.21600000000000016;-284094482.0;-259376221.0;-1397704.0;-3658.080116274822;-3464.2552074673968;-177.09984115553243;-23189.626614973007;-19500.0;-3689.626614973008
0.22000000000000017;-299080331.0;-273878174.0;-1301911.0;-3746.462042160295;-3630.4806442771046;-96.04271950693601;-22095.481471368203;-23583.333333333332;1487.8518619651295
0.22400000000000017;-314394664.0;-288550415.0;-1399986.0;-3828.5830678953157;-3664.7210624856325;-162.25625556139767;-20530.2564337552;-21916.666666666668;1386.4102329114694
0.22800000000000017;-330007517.0;-303760986.0;-1303431.0;-3903.213154914909;-3807.96256930537;-95.6706895708503;-18657.521754898313;-25666.666666666668;7009.144911768356
0.23200000000000018;-345885314.0;-319345093.0;-1150091.0;-3969.4489098333793;-3876.8129940217436;-91.28729539656842;-16558.93872961758;-27750.0;11191.061270382419
0.23600000000000018;-361990879.0;-334973145.0;-1238189.0;-4026.391254647203;-3908.9793411424203;-138.92411399786306;-14235.58620345591;-19083.333333333332;4847.747129877423
0.24000000000000019;-378284843.0;-350952759.0;-1225126.0;-4073.490610215184;-3981.8291872272366;-127.4204684742108;-11774.838891995274;-19416.666666666668;7641.827774671395
0.2440000000000002;-394728435.0;-367003784.0;-1353029.0;-4110.897826361786;-3999.8927037183857;-174.72984693244325;-9351.804036650607;-11500.0;2148.1959633493943
0.2480000000000002;-411284709.0;-383230591.0;-1478407.0;-4139.068269261754;-4047.913950578705;-182.0591355643246;-7042.610724991846;-11916.666666666666;4874.05594167482
0.25200000000000017;-427919978.0;-399896851.0;-1299539.0;-4158.817224024586;-4163.919991441492;-82.68353645985371;-4937.238690708;-12333.333333333334;7396.094642625334
0.25600000000000017;-444607523.0;-416623535.0;-1159789.0;-4171.885958999376;-4164.30237442953;-93.7707296293911;-3267.183743697615;-15083.333333333334;11816.14958963572
0.2600000000000002;-461328363.0;-433449097.0;-989760.0;-4180.20972111291;-4201.3906467204015;-57.509369990888445;-2080.9405283835076;-12833.333333333334;10752.392804949826
0.2640000000000002;-478068635.0;-450192261.0;-947035.0;-4185.067860849615;-4174.46276511163;-91.56222088798131;-1214.534934176072;-8000.0;6785.465065823928
0.2680000000000002;-494818213.0;-467122192.0;-745453.0;-4187.39429865317;-4230.185085039535;-23.46552852691275;-581.6094508888909;-1250.0;668.3905491111091
0.2720000000000002;-511570613.0;-483975220.0;-636273.0;-4188.099789261279;-4206.873468618265;-40.17053080734695;-176.37265202711205;-3500.0;3323.627347972888
0.2760000000000002;-528322529.0;-500861206.0;-500930.0;-4187.978944622196;-4208.144619411922;-27.605043772563477;30.211159770715312;-1583.3333333333333;1613.5444931040486
0.2800000000000002;-545072893.0;-517505493.0;-608834.0;-4187.590661910346;-4157.648676458271;-88.84713005778121;97.07067796239244;1166.6666666666667;-1069.5959887042743
0.2840000000000002;-561821844.0;-534325562.0;-540069.0;-4187.237717875473;-4198.604520978568;-41.067807689355504;88.23600871824056;4250.0;-4161.763991281759
0.2880000000000002;-578569940.0;-550931396.0;-684048.0;-4187.023691985027;-4144.868030055676;-108.2535781536053;53.50647261161612;2916.6666666666665;-2863.1601940550504
0.2920000000000002;-595317695.0;-567806396.0;-557668.0;-4186.938476917482;-4220.281603632018;-20.409452353500456;21.30376688614888;1333.3333333333333;-1312.0295664471844
0.2960000000000002;-612065421.0;-584516602.0;-595428.0;-4186.931306102056;-4164.0857148534615;-80.06653274671771;1.7927038566085685;-3000.0;3001.7927038566086
0.3000000000000002;-628813238.0;-601298218.0;-561557.0;-4186.954201347106;-4196.147854993378;-44.69775011484853;-5.723811262669187;1000.0;-1005.7238112626692
0.3040000000000002;-645561151.0;-617958984.0;-648554.0;-4186.978057841207;-4167.574804226259;-81.62680549922516;-5.964123525245668;-833.3333333333334;827.3692098080877
0.3080000000000002;-662309120.0;-634839478.0;-515914.0;-4186.99192325252;-4220.183514802398;-16.307755120033107;-3.4663528281271283;2166.6666666666665;-2170.1330194947936
0.3120000000000002;-679057104.0;-651648560.0;-454767.0;-4186.995886908216;-4199.0436012341;-31.59744624189716;-0.9909139239425713;-3833.3333333333335;3832.342419409391
0.3160000000000002;-695805082.0;-668496094.0;-355207.0;-4186.994131569832;-4217.027910203745;-4.065375333675547;0.4388345960251172;-1250.0;1250.4388345960251
0.32000000000000023;-712553045.0;-685118408.0;-480875.0;-4186.990691442443;-4171.8867578390455;-61.27240988038375;0.8600318471962964;416.6666666666667;-415.8066348194704
0.32400000000000023;-729300997.0;-701938477.0;-408778.0;-4186.987892204605;-4216.088503406564;-10.146962491690829;0.6998094595473958;3416.6666666666665;-3415.966857207119
0.32800000000000024;-746048944.0;-718604736.0;-490477.0;-4186.986435456948;-4170.832985797645;-63.242407947718675;0.3641869141119969;416.6666666666667;-416.3024797525547
0.33200000000000024;-762796889.0;-735276489.0;-566675.0;-4186.986086125976;-4180.875681441079;-60.512449587616175;0.08733274307815009;1916.6666666666667;-1916.5793339235886
0.33600000000000024;-779544835.0;-752129517.0;-461593.0;-4186.986321335565;-4232.879618310511;1.580384822211272;-0.05880239723410341;-666.6666666666666;666.6078642694325
0.34000000000000025;-796292783.0;-769010010.0;-329045.0;-4186.986705351779;-4225.213595012491;6.639093582728492;-0.09600405360288278;-2666.6666666666665;2666.5706626130636
0.34400000000000025;-813040732.0;-785813599.0;-273403.0;-4186.98700655741;-4213.363896641365;0.13073642754898174;-0.07530140760536597;-4000.0;3999.9246985923946
0.34800000000000025;-829788681.0;-802567749.0;-267202.0;-4186.987164924779;-4188.536508698253;-24.10170582675073;-0.039591842323716264;-1250.0;1249.9604081576763
0.35200000000000026;-846536631.0;-819288940.0;-293960.0;-4186.987212228992;-4206.965849002292;-8.241378580435594;-0.011826053196273278;4750.0;-4750.011826053196
0.35600000000000026;-863284580.0;-836196899.0;-133950.0;-4186.987204449424;-4226.632636294225;26.786253542008126;0.0019448918919806601;-666.6666666666666;666.6686115585586
0.36000000000000026;-880032530.0;-853049927.0;-28872.0;-4186.987185388457;-4226.159038758859;36.40011789153323;0.004765241783388774;-1166.6666666666667;1166.6714319084501
0.36400000000000027;-896780479.0;-869809570.0;-17178.0;-4186.987176923945;-4194.685869065299;6.049584127677917;0.00211612791645166;-3166.6666666666665;3166.668782794583
0.36800000000000027;-913528429.0;-886514282.0;-60416.0;-4186.987183680303;-4199.882937374851;7.095819230762572;-0.0016890894585230853;3666.6666666666665;-3666.668355756125
0.3720000000000003;-930276379.0;-903208008.0;-114639.0;-4186.987201618593;-4171.2968931476935;-26.695630504636938;-0.004484572400542675;2250.0;-2250.0044845724005
0.3760000000000003;-947024328.0;-919923706.0;-146891.0;-4186.987224836435;-4188.970964434392;-12.117762318570385;-0.005804460670333356;3250.0;-3250.0058044606703
0.3800000000000003;-963772278.0;-936804199.0;-14348.0;-4186.987248998811;-4202.152902898332;13.788284179334369;-0.006040593916623038;-3666.6666666666665;3666.66062607275
0.3840000000000003;-980520228.0;-953475952.0;-90544.0;-4186.987272090709;-4179.895135110555;-15.784323169848903;-0.005772974418505328;750.0;-750.0057729744185
0.3880000000000003;-997268178.0;-970224609.0;-89837.0;-4186.987293808602;-4178.20036673746;-17.411243275344532;-0.005429473276308272;-1666.6666666666667;1666.6612371933904
0.3920000000000003;-1014016128.0;-986907349.0;-155047.0;-4186.987314648988;-4186.231811360949;-15.639981205252298;-0.005210096560404054;4166.666666666667;-4166.671876763227
0.3960000000000003;-1030764078.0;-1003815308.0;4962.0;-4186.987335233021;-4209.570142639939;23.05919269570859;-0.005146008334122598;-2916.6666666666665;2916.6615206583324
0.4000000000000003;-1047512028.0;-1020531006.0;-27290.0;-4186.987355988575;-4177.997886979237;-11.609275708879977;-0.005188888280827086;-916.6666666666666;916.6614777783858
0.4040000000000003;-1064259979.0;-1037257690.0;-48556.0;-4186.987377098722;-4171.588808422371;-20.059910919310823;-0.005277536956782569;-1583.3333333333333;1583.3280557963765
0.4080000000000003;-1081007929.0;-1054000854.0;-53342.0;-4186.987398578104;-4181.939809929745;-10.168386307060246;-0.005369845439417986;3000.0;-3000.0053698454394
0.4120000000000003;-1097755879.0;-1070727539.0;-74608.0;-4186.987420367481;-4163.2261596649805;-30.923593826292745;-0.005447344165077084;500.0;-500.0054473441651
0.4160000000000003;-1114503830.0;-1087388306.0;-161791.0;-4186.987442401778;-4157.50939827634;-45.00994481505859;-0.005508574304258218;1333.3333333333333;-1333.3388419076375
0.4200000000000003;-1131251781.0;-1104104004.0;-194043.0;-4186.987464638657;-4163.18590914814;-42.429647827922054;-0.005559219744100119;166.66666666666666;-166.67222588641076
0.4240000000000003;-1147999731.0;-1120957031.0;-88967.0;-4186.987487061093;-4198.027936431569;2.499653342308193;-0.005605608976111398;-166.66666666666666;166.66106105769055
0.4280000000000003;-1164747682.0;-1137722168.0;-71781.0;-4186.987509668555;-4177.7535831864525;-16.12486621205062;-0.005651865421896218;-3083.3333333333335;3083.3276814679116
0.43200000000000033;-1181495633.0;-1154470825.0;-71074.0;-4186.987532466976;-4179.468079000967;-14.342520892256289;-0.00569960525353963;-666.6666666666666;666.6609670614131
0.43600000000000033;-1198243584.0;-1171186523.0;-103327.0;-4186.98755546308;-4168.926008990752;-27.980901584555795;-0.005749026058765594;833.3333333333334;-833.3390823593921
0.44000000000000034;-1214991535.0;-1188127441.0;89640.0;-4186.98757865944;-4223.398729627402;45.01662817640954;-0.0057990901041193865;0.0;-0.0057990901041193865
0.44400000000000034;-1231739487.0;-1204876099.0;90347.0;-4186.987602057565;-4183.463065327764;5.148812802441171;-0.005849531135027064;-2416.6666666666665;2416.6608171355315
0.44800000000000034;-1248487438.0;-1221806030.0;272326.0;-4186.987625656702;-4224.013602167069;63.16931036654296;-0.005899784355278825;-1916.6666666666667;1916.6607668823115
0.45200000000000035;-1265235389.0;-1238450317.0;168662.0;-4186.987649455154;-4151.21593207758;-19.580127199575145;-0.005949612841504859;83.33333333333333;-83.33928294617483
0.45600000000000035;-1281983341.0;-1255187988.0;158382.0;-4186.987673452355;-4180.790695335411;9.007732381277492;-0.005999300356052117;4250.0;-4250.005999300356
0.46000000000000035;-1298731292.0;-1271810303.0;32745.0;-4186.9876976465475;-4151.805774482288;-32.03836434792265;-0.006048548129911069;2833.3333333333335;-2833.3393818814634
0.46400000000000036;-1315479244.0;-1288657837.0;132328.0;-4186.987722037792;-4210.025935630318;35.74174072596452;-0.006097811137806275;2250.0;-2250.006097811138
0.46800000000000036;-1332227196.0;-1305313110.0;39649.0;-4186.987746624647;-4161.4827150073;-21.698688168198714;-0.0061467137584259035;-2666.6666666666665;2666.660519952908
0.47200000000000036;-1348975148.0;-1322083740.0;62327.0;-4186.987771407299;-4187.360825440873;6.356485797724417;-0.006195662990648998;-83.33333333333333;83.32713767034268
0.47600000000000037;-1365723100.0;-1338706055.0;-63310.0;-4186.9877963848685;-4160.525156401031;-32.54035990547254;-0.006244392352527939;333.3333333333333;-333.33957772568584
0.48000000000000037;-1382471052.0;-1355586548.0;69231.0;-4186.98782155698;-4224.2648603840935;43.92325521876592;-0.0062930278090789216;1000.0;-1000.0062930278091
0.4840000000000004;-1399219004.0;-1372357178.0;91909.0;-4186.987846922941;-4195.243293550507;17.07875133163907;-0.006341490234262892;-3250.0;3249.9936585097657
0.4880000000000004;-1415966956.0;-1389127808.0;114587.0;-4186.9878724824375;-4204.160594615341;28.1731151486656;-0.006389874215528835;-1000.0;999.9936101257845
