Zeit[sec];Sollposition[°];Istposition[°];Positionsschleppfehler[°];Sollgeschwindigkeit[°/s];Istgeschwindigkeit[°/s];Geschwindigkeitsdifferenz[°/s];Sollbeschleunigung[°/s*s];Istbeschleunigung[°/s*s];Beschleunigungsdifferenz[°/s*s]
0.0;0.0;0.0;0.0;-0.0;-0.18885842955352639;0.18885842955352639;0.0;0.0;0.0
0.004;0.0;0.0;0.0;-0.0;-0.6359290697266144;0.6359290697266144;0.0;0.0;0.0
0.008;0.0;5493.0;-5493.0;-0.0;2.466221750732239;-2.795801750732239;0.0;0.0;0.0
0.012;0.0;0.0;0.0;-0.0;1.758492091296813;-1.758492091296813;0.0;0.0;0.0
0.016;0.0;5493.0;-5493.0;-0.0;2.8661936060012185;-3.1957736060012185;0.0;0.0;0.0
0.02;0.0;-5493.0;5493.0;-0.0;0.962704656713924;-0.633124656713924;0.0;-83.33333333333333;83.33333333333333
0.024;0.0;0.0;0.0;-0.0;0.4063811457757193;-0.4063811457757193;0.0;83.33333333333333;-83.33333333333333
0.028;0.0;0.0;0.0;-0.0;0.020621036006450325;-0.020621036006450325;0.0;0.0;0.0
0.032;0.0;-10986.0;10986.0;-0.0;-3.954665079374452;4.613825079374452;0.0;83.33333333333333;-83.33333333333333
0.036000000000000004;-248.0;0.0;0.0;-0.06203468595884345;-0.022295454182543875;0.022295454182543875;-15.508671489710862;-83.33333333333333;67.82466184362247
0.04000000000000001;-2721.0;0.0;-98.0;-0.6182173872119817;1.068614422806211;-1.0990902064969243;-139.04567531328456;0.0;-139.04567531328456
0.04400000000000001;-14875.0;0.0;-1227.0;-3.0386638194260067;-0.00032453629562511315;-0.3554844158673405;-605.1116080535063;83.33333333333333;-688.4449413868396
0.048000000000000015;-55050.0;0.0;-7525.0;-10.043820025483459;-0.39059395678684306;-1.6355337383073407;-1751.289051514363;0.0;-1751.289051514363
0.05200000000000002;-156968.0;0.0;-30733.0;-25.47950174044227;-0.09250514371477737;-7.553391352533537;-3858.920428739703;0.0;-3858.920428739703
0.05600000000000002;-370129.0;0.0;-95223.0;-53.29002038172754;-0.2882492281987244;-21.547911577594242;-6952.629660321317;-83.33333333333333;-6869.296326987984
0.060000000000000026;-755130.0;-10986.0;-229900.0;-96.25026166124813;-3.7641163070894583;-46.44537808772006;-10740.06031988015;0.0;-10740.06031988015
0.06400000000000003;-1377627.0;-16479.0;-505048.0;-155.6242947072884;-0.8042715606205814;-99.65874097700309;-14843.508261510071;-250.0;-14593.508261510071
0.06800000000000003;-2305266.0;-49438.0;-950247.0;-231.90968385350237;-9.135883875355596;-167.41835400563397;-19071.34728655349;-250.0;-18821.34728655349
0.07200000000000004;-3606906.0;-153809.0;-1587965.0;-325.41012162634723;-30.793696501227323;-250.00656831845038;-23375.109443211215;-1166.6666666666667;-22208.442776544547
0.07600000000000004;-5350460.0;-565796.0;-2250114.0;-435.8883562987441;-118.59002628295327;-284.95097550111336;-27619.558668099216;-4500.0;-23119.558668099216
0.08000000000000004;-7598545.0;-2081909.0;-2208662.0;-562.0213472074602;-391.97106608504635;-109.21381523891426;-31533.247727179016;-19166.666666666668;-12366.58106051235
0.08400000000000005;-10404291.0;-4262695.0;-1968879.0;-701.4363950180808;-538.663154749835;-64.72036820994845;-34853.761952655164;-39000.0;4146.2380473448375
0.08800000000000005;-13808060.0;-6580811.0;-2116996.0;-850.9421227811956;-585.1099933809509;-158.4679414296926;-37376.431940778704;-42166.666666666664;4790.234725887963
0.09200000000000005;-17834655.0;-9409790.0;-2327602.0;-1006.6488584730549;-721.3518235577463;-178.2004914456478;-38926.683922964825;-33500.0;-5426.683922964827
0.09600000000000006;-22491956.0;-13090210.0;-2294388.0;-1164.3251565616397;-930.8921645253153;-118.57251591634542;-39419.07452214619;-27583.333333333332;-11835.741188812857
0.10000000000000006;-27770609.0;-17490234.0;-2167375.0;-1319.6631293333767;-1105.6931084009186;-92.60209441765801;-38834.49319293425;-37833.333333333336;-1001.1598596009107
0.10400000000000006;-33643484.0;-22527466.0;-2030105.0;-1468.2186555227738;-1262.2657330585325;-84.53091799216372;-37138.88154734929;-45833.333333333336;8694.45178598405
0.10800000000000007;-40066287.0;-28174438.0;-1893745.0;-1605.700704386394;-1421.0982217070507;-70.1793691461155;-34370.51221590502;-43416.666666666664;9046.154450761642
0.11200000000000007;-46980858.0;-34376221.0;-1779393.0;-1728.6427729598236;-1558.9011061926697;-69.72017101125016;-30735.517143357414;-38916.666666666664;8181.149523309252
0.11600000000000008;-54319958.0;-41319580.0;-1450593.0;-1834.7747763555321;-1743.4895963786405;2.8142616527638893;-26533.000848927146;-38166.666666666664;11633.665817739518
0.12000000000000008;-62011854.0;-48757324.0;-1092857.0;-1922.973878503133;-1860.0571903759055;24.48368006528335;-22049.7755369002;-39416.666666666664;17366.891129766464
0.12400000000000008;-69984279.0;-56409302.0;-917370.0;-1993.1062244608308;-1912.8413016058669;-11.323373432820517;-17533.086489424477;-33916.666666666664;16383.580177242187
0.12800000000000009;-78167571.0;-64517212.0;-610514.0;-2045.8228795868572;-2031.2783128880626;44.38400664475421;-13179.163781506588;-26833.333333333332;13654.169551826744
0.1320000000000001;-86497030.0;-72745972.0;-436141.0;-2082.3648260369423;-2068.881475177314;29.11639237134591;-9135.486612521276;-19666.666666666668;10531.180054145392
0.1360000000000001;-94916005.0;-81051636.0;-370486.0;-2104.743426474417;-2086.5488319858973;4.317368250623986;-5594.650109368672;-14833.333333333334;9238.683223964661
0.1400000000000001;-103380195.0;-89527588.0;-258629.0;-2116.0475607052895;-2119.9799404112337;13.438721933945544;-2826.0335577181195;-11250.0;8423.96644228188
0.1440000000000001;-111860330.0;-98118896.0;-103698.0;-2120.033721279275;-2144.820902547969;29.50480809004739;-996.5401434964178;-7750.0;6753.459856503582
0.1480000000000001;-120340914.0;-106715698.0;22857.0;-2120.145728109761;-2145.7355264168837;29.545170489276643;-28.001707621456262;-6750.0;6721.998292378544
0.1520000000000001;-128816279.0;-115180664.0;7603.0;-2118.841138138446;-2115.7152365126317;-3.88335731521056;326.1474928287953;-2666.6666666666665;2992.814159495462
0.1560000000000001;-137286243.0;-123607178.0;-44395.0;-2117.490962076062;-2105.2317179866427;-17.059804293688103;337.544015595995;2250.0;-1912.455984404005
0.16000000000000011;-145752713.0;-132165527.0;40700.0;-2116.6174324011795;-2146.3465654585525;30.47510695047822;218.38241872058006;2666.6666666666665;-2448.2842479460865
0.16400000000000012;-154217680.0;-140657959.0;64522.0;-2116.2415305962622;-2117.89045107686;4.609238680123326;93.97545122931206;-666.6666666666666;760.6421178959787
0.16800000000000012;-162682426.0;-149057007.0;-2325.0;-2116.1865279271024;-2098.0568582397905;-18.556153307144086;13.750667289968987;83.33333333333333;-69.58266604336434
0.17200000000000013;-171147490.0;-157417603.0;-106617.0;-2116.26579858631;-2105.6257075899985;-16.99323785699653;-19.817664801962565;2666.6666666666665;-2686.484331468629
0.17600000000000013;-179612926.0;-166063843.0;74750.0;-2116.3590412175695;-2160.714912118908;48.98163233277046;-23.310657814818114;1000.0;-1023.3106578148181
0.18000000000000013;-188078594.0;-174677124.0;222821.0;-2116.4168833013496;-2147.422756204874;44.489712848704585;-14.460520945021926;-4750.0;4735.539479054978
0.18400000000000014;-196544338.0;-182861938.0;-57891.0;-2116.4357501865643;-2046.204576088294;-73.65031226816996;-4.71672130368006;-1166.6666666666667;1161.9499453629867
0.18800000000000014;-205010061.0;-191046753.0;-338772.0;-2116.43063970568;-2065.851944879589;-70.89839992849329;1.277620221117104;8166.666666666667;-8165.38904644555
0.19200000000000014;-213475731.0;-199528198.0;-323063.0;-2116.417489786408;-2129.3167154500984;-6.50067796248959;3.2874798179136633;6666.666666666667;-6663.379186848753
0.19600000000000015;-221941356.0;-208168945.0;-148018.0;-2116.406071729975;-2143.835089091763;18.528553179382925;2.854514108321382;-4583.333333333333;4586.187847441654
0.20000000000000015;-230406955.0;-216551514.0;-231101.0;-2116.399726939592;-2098.0304757620047;-32.24862399374206;1.5861975957705;-7666.666666666667;7668.2528642624375
0.20400000000000015;-238872547.0;-224994507.0;-253723.0;-2116.397856793605;-2125.7715079237073;-5.855495098690426;0.46753649667152786;-583.3333333333334;583.8008698300049
0.20800000000000016;-247338141.0;-233635254.0;-78573.0;-2116.3984945328993;-2154.047457702847;32.93405507041052;-0.15943482355851302;833.3333333333334;-833.4927681568919
0.21200000000000016;-255803741.0;-242171631.0;-7789.0;-2116.399883292957;-2128.4643949540823;11.598934348926832;-0.3471900143949824;-2416.6666666666665;2416.3194766522715
0.21600000000000016;-264269346.0;-250493774.0;-151242.0;-2116.401031098012;-2074.813828098668;-50.65973331913847;-0.2869512637744265;-1250.0;1249.7130487362256
0.22000000000000017;-272734953.0;-258958740.0;-151878.0;-2116.401636581005;-2118.323389773801;-7.18962046866136;-0.15137074819904228;4583.333333333333;-4583.484704081532
0.22400000000000017;-281200560.0;-267593994.0;17770.0;-2116.401790896382;-2154.188216214075;38.853151776939285;-0.038578844282710634;1000.0;-1000.0385788442827
0.22800000000000017;-289666167.0;-276157837.0;116006.0;-2116.401706047051;-2140.158055375225;30.71672115833826;0.02121233274010592;-3750.0;3750.02121233274
0.23200000000000018;-298131774.0;-284694214.0;186776.0;-2116.4015595341143;-2133.5968407697546;28.401644418995602;0.03662823417016625;-3750.0;3750.03662823417
0.23600000000000018;-306597380.0;-293285522.0;312477.0;-2116.401445925136;-2149.376646226942;51.72361777281503;0.0284022445384835;83.33333333333333;-83.30493108879485
0.24000000000000019;-315062986.0;-301750488.0;311837.0;-2116.4013899125816;-2119.6916345443656;22.000339195960805;0.014003138630869216;1500.0;-1499.9859968613691
0.2440000000000002;-323528592.0;-310166016.0;261759.0;-2116.401378770558;-2107.9004050285052;7.204520645798311;0.002785505898827978;2083.3333333333335;-2083.3305478274347
0.2480000000000002;-331994198.0;-318504639.0;134776.0;-2116.401389873429;-2083.4543658976754;-24.860459925465875;-0.0027757176894738222;3500.0;-3500.0027757176895
0.25200000000000017;-340459804.0;-326854248.0;18779.0;-2116.4014055069674;-2088.863183784278;-26.41145945368089;-0.0039083846559151425;4500.0;-4500.003908384656
0.25600000000000017;-348925410.0;-335181885.0;-119190.0;-2116.4014168407784;-2094.539980078404;-29.012815928421787;-0.002833452754202881;2500.0;-2500.002833452754
0.2600000000000002;-357391016.0;-343734741.0;-31940.0;-2116.4014220355616;-2141.7645710736333;23.446761164591862;-0.001298695792684157;-1500.0;1499.9987013042073
0.2640000000000002;-365856622.0;-352320557.0;88270.0;-2116.4014227560683;-2142.8915551578043;31.78633632378751;-0.00018012667624134338;-5500.0;5499.999819873324
0.2680000000000002;-374322228.0;-360769043.0;71150.0;-2116.401421413064;-2101.485427832129;-10.646994458661538;0.0003357511104695732;-4750.0;4750.0003357511105
0.2720000000000002;-382787834.0;-369102173.0;-61326.0;-2116.40141977282;-2093.6690678819937;-26.411914337370945;0.0004100609203305794;2583.3333333333335;-2583.332923272413
0.2760000000000002;-391253441.0;-377512207.0;-116898.0;-2116.4014186547433;-2115.9447128280044;-7.470587942598286;0.00027951921310886974;4583.333333333333;-4583.33305381412
0.2800000000000002;-399719047.0;-386076050.0;-18662.0;-2116.401418181382;-2133.389010103216;15.867870764084273;0.00011834038105007494;416.6666666666667;-416.66654832628564
0.2840000000000002;-408184653.0;-394502563.0;-57755.0;-2116.4014181496395;-2101.272338567424;-18.59437990619017;7.935568646644242e-06;-3416.6666666666665;3416.666674602235
0.2880000000000002;-416650259.0;-402918091.0;-107833.0;-2116.401418306171;-2108.203519106804;-14.66787906476111;-3.913282853318378e-05;-666.6666666666666;666.6666275338381
0.2920000000000002;-425115865.0;-411454468.0;-37062.0;-2116.4014184765056;-2132.9171463082057;14.292008096318568;-4.2583678805385716e-05;1083.3333333333333;-1083.333375917012
0.2960000000000002;-433581471.0;-420012817.0;55681.0;-2116.401418585773;-2152.8679788503337;39.807420477539836;-2.7316900741425343e-05;-666.6666666666666;666.6666393497659
0.3000000000000002;-442047077.0;-428510742.0;88000.0;-2116.4014186280433;-2115.8280611955315;4.706642676705087;-1.0567532626737375e-05;-3666.6666666666665;3666.666656099134
0.3040000000000002;-450512683.0;-436975708.0;87360.0;-2116.4014186271843;-2111.9500410029823;0.790222401086794;2.1475443645613268e-07;166.66666666666666;-166.66666645191222
0.3080000000000002;-458978289.0;-445473633.0;119679.0;-2116.4014186093573;-2136.2261347211115;27.00545609365463;4.456751412362792e-06;1833.3333333333333;-1833.3333288765818
0.3120000000000002;-467443895.0;-453960571.0;141011.0;-2116.401418591848;-2124.523270306567;16.58251168644847;4.377284312795382e-06;1166.6666666666667;-1166.6666622893824
0.3160000000000002;-475909501.0;-462474976.0;189810.0;-2116.4014185813207;-2132.051783784322;27.038965181807725;2.631850293255411e-06;-500.0;500.0000026318503
0.32000000000000023;-484375107.0;-470923462.0;172690.0;-2116.401418577552;-2111.0417400444126;5.001721456640553;9.422365110367537e-07;-1166.6666666666667;1166.6666676089033
0.32400000000000023;-492840713.0;-479278564.0;62186.0;-2116.4014185780447;-2093.1955776112127;-19.474680968672146;-1.2323653209023178e-07;2666.6666666666665;-2666.666666789903
0.32800000000000024;-501306320.0;-487644653.0;-37331.0;-2116.4014185800643;-2100.4419462725127;-18.199332305261123;-5.048832463216968e-07;3083.3333333333335;-3083.3333338382167
0.33200000000000024;-509771926.0;-496246948.0;99357.0;-2116.4014185818137;-2146.3820179529907;35.94201937414482;-4.3735326471505687e-07;0.0;-4.3735326471505687e-07
0.33600000000000024;-518237532.0;-504651489.0;38292.0;-2116.4014185828155;-2098.957932554707;-15.145966026041151;-2.504521035007201e-07;-2833.3333333333335;2833.3333330828814
0.34000000000000025;-526703138.0;-512968140.0;-110663.0;-2116.4014185831493;-2080.250219814663;-42.7909787675394;-8.344613888766617e-08;-83.33333333333333;83.33333324988719
0.34400000000000025;-535168744.0;-521510010.0;-34399.0;-2116.4014185831015;-2148.3948441161697;29.929485533225034;1.1937117960769683e-08;2416.6666666666665;-2416.6666666547294
0.34800000000000025;-543634350.0;-530183716.0;173701.0;-2116.4014185828314;-2150.2239082614096;44.24454967828751;6.752998160663992e-08;-3416.6666666666665;3416.6666667341965
0.35200000000000026;-552099956.0;-538533325.0;57704.0;-2116.401418582688;-2081.891384864929;-31.047793718061257;3.581135388230905e-08;-3083.3333333333335;3083.333333369145
0.35600000000000026;-560565562.0;-546635742.0;-305485.0;-2116.4014185825295;-2029.5964638271755;-105.13405475559944;3.9676706364843994e-08;3833.3333333333335;-3833.333333293657
0.36000000000000026;-569031168.0;-555073242.0;-333591.0;-2116.401418582513;-2108.3894573743846;-28.02742120824314;4.092726157978177e-09;9166.666666666666;-9166.666666662573
0.36400000000000027;-577496774.0;-563659058.0;-213381.0;-2116.4014185826245;-2146.896726389318;17.692447806796736;-2.7853275241795927e-08;-500.0;499.9999999721467
0.36800000000000027;-585962380.0;-572162476.0;-175569.0;-2116.401418582545;-2125.6113112285984;-1.3242473539539787;1.9895196601282805e-08;-7500.0;7500.000000019895
0.3720000000000003;-594427986.0;-580616455.0;-187196.0;-2116.4014185826086;-2116.095661379275;-11.53751720332366;-1.5916157281026244e-08;-4666.666666666667;4666.666666650751
0.3760000000000003;-602893592.0;-589103394.0;-165863.0;-2116.4014185826722;-2122.219987947365;-4.133210635200612;-1.5916157281026244e-08;1166.6666666666667;-1166.666666682583
0.3800000000000003;-611359199.0;-597661743.0;-73120.0;-2116.401418582545;-2141.621862977769;20.83324439513899;3.183231456205249e-08;833.3333333333334;-833.333333301501
0.3840000000000003;-619824805.0;-606253052.0;52582.0;-2116.4014185826086;-2141.0646901668324;27.81819158420967;-1.5916157281026244e-08;-2583.3333333333335;2583.3333333174173
0.3880000000000003;-628290411.0;-614608154.0;-57922.0;-2116.4014185826722;-2089.8947272446985;-29.98201133786324;-1.5916157281026244e-08;0.0;-1.5916157281026244e-08
0.3920000000000003;-636756017.0;-623023682.0;-108000.0;-2116.401418582513;-2114.5044869324684;-8.376931650162078;3.979039320256561e-08;3500.0;-3499.9999999602096
0.3960000000000003;-645221623.0;-631636963.0;39675.0;-2116.4014185826404;-2150.4933310159963;36.4724124333884;-3.183231456205249e-08;1333.3333333333333;-1333.3333333651656
0.4000000000000003;-653687229.0;-640233765.0;170871.0;-2116.4014185826722;-2152.497576079909;46.34841749734733;-7.958078640513122e-09;-2916.6666666666665;2916.6666666587084
0.4040000000000003;-662152835.0;-648759155.0;230655.0;-2116.401418582513;-2138.899691500445;36.33757291779739;3.979039320256561e-08;-4416.666666666667;4416.666666706457
0.4080000000000003;-670618343.0;-657262573.0;268467.0;-2116.3768912232604;-2119.1124982231468;18.819099640533295;6.131839813178885;-166.66666666666666;172.79850647984554
0.4120000000000003;-679083118.0;-665765991.0;306318.0;-2116.1937779817454;-2120.1017974025135;22.089183534707445;45.778310378750575;2416.6666666666665;-2370.888356287916
0.4160000000000003;-687545238.0;-674121094.0;196203.0;-2115.5298439275616;-2094.127049522855;-10.405203876282485;165.98351354593888;3166.6666666666665;-3000.6831531207276
0.4200000000000003;-696000185.0;-682399292.0;10674.0;-2113.7365782423917;-2078.5581001506866;-36.73307128168699;448.31642129247484;4916.666666666667;-4468.350245374192
0.4240000000000003;-704437517.0;-690814819.0;-33091.0;-2109.3329079864307;-2102.697495824477;-14.110696517292126;1100.917563990265;2583.3333333333335;-1482.4157693430684
0.4280000000000003;-712835559.0;-699235840.0;-60075.0;-2099.5104970920356;-2101.688008804596;-13.91759040477973;2455.6027235987585;-333.3333333333333;2788.936056932092
0.43200000000000033;-721157648.0;-707739258.0;21486.0;-2080.5221135977213;-2134.381280834529;30.206162537162072;4747.095873578587;-2583.3333333333335;7330.42920691192
0.43600000000000033;-729352438.0;-716220703.0;134773.0;-2048.6973576034743;-2117.0991631868596;33.14609026799371;7956.188998561743;-3416.6666666666665;11372.85566522841
0.44000000000000034;-737357075.0;-724416504.0;58512.0;-2001.159112460529;-2044.9563322057431;-19.548302961607305;11884.56128573631;1583.3333333333333;10301.227952402978
0.44400000000000034;-745101303.0;-732442017.0;-36118.0;-1936.0568923246376;-2006.3586488392382;-25.84409052979231;16275.555033972865;7083.333333333333;9192.221700639531
0.44800000000000034;-752511562.0;-740467529.0;86891.0;-1852.564817211723;-1998.791757775738;28.379573971760692;20873.01877822864;10500.0;10373.018778228641
0.45200000000000035;-759514377.0;-748251343.0;257364.0;-1750.703429455652;-1940.412743837934;52.51953641079149;25465.346939017763;9083.333333333334;16382.01360568443
0.45600000000000035;-766039090.0;-755584717.0;340068.0;-1631.1782175795431;-1817.5662373371395;25.30273740889629;29881.302969027216;10416.666666666666;19464.63630236055
0.46000000000000035;-772021734.0;-762462158.0;401866.0;-1495.6609878863333;-1720.2669276793665;40.46849308227752;33879.30742330247;20166.666666666668;13712.640756635796
0.46400000000000036;-777410387.0;-768872681.0;499797.0;-1347.1632874636512;-1597.7353784794295;49.57510197818647;37124.425105670525;26250.0;10874.425105670525
0.46800000000000036;-782169424.0;-774700928.0;577732.0;-1189.7590285950887;-1449.7299170398833;46.815820826842355;39351.064717140616;30583.333333333332;8767.731383807284
0.47200000000000036;-786281908.0;-780045776.0;780079.0;-1028.1210418769645;-1331.4624170086672;92.64209503143934;40409.49667953106;31083.333333333332;9326.163346197727
0.47600000000000037;-789751261.0;-784709473.0;937398.0;-867.3381776365393;-1150.0570690891007;79.7065660548999;40195.71606010629;33833.333333333336;6362.382726772957
0.48000000000000037;-792601098.0;-788461304.0;827948.0;-712.4592819569025;-930.7423984607062;15.099032444387376;38719.7239199092;40333.333333333336;-1613.6094134241362
0.4840000000000004;-794872558.0;-791729736.0;868887.0;-567.8649368714402;-814.6599495570143;59.919966979548576;36148.58627136556;43750.0;-7601.413728634441
0.4880000000000004;-796620697.0;-794432373.0;947375.0;-437.0347023418361;-661.287498467572;62.09262152104009;32707.558632401033;42083.333333333336;-9375.774700932305
