Zeit[sec];Sollposition[°];Istposition[°];Positionsschleppfehler[°];Sollgeschwindigkeit[°/s];Istgeschwindigkeit[°/s];Geschwindigkeitsdifferenz[°/s];Sollbeschleunigung[°/s*s];Istbeschleunigung[°/s*s];Beschleunigungsdifferenz[°/s*s]
0.0;-9979199999.0;-9979205933.0;5934.0;0.0;-1.6995213194191456;2.0555613194357085;0.0;0.0;0.0
0.004;-9979199999.0;-9979205933.0;5934.0;0.0;-2.4465776526853444;2.8026176527019073;0.0;0.0;0.0
0.008;-9979199999.0;-9979200439.0;440.0;0.0;2.2695083633363247;-2.24310836331157;0.0;0.0;0.0
0.012;-9979199999.0;-9979205933.0;5934.0;0.0;-2.689605028577149;3.045645028593712;0.0;0.0;0.0
0.016;-9979199999.0;-9979205933.0;5934.0;0.0;-3.5087785905748605;3.8648185905914234;0.0;0.0;0.0
0.02;-9979199999.0;-9979211426.0;11427.0;0.0;-4.62893634031713;5.3145563402725635;0.0;-83.33333333333333;83.33333333333333
0.024;-9979199999.0;-9979205933.0;5934.0;0.0;-1.4389004382491113;1.7949404382656744;0.0;0.0;0.0
0.028;-9979199999.0;-9979205933.0;5934.0;0.0;1.3479105154946447;-0.9918705154780817;0.0;-83.33333333333333;83.33333333333333
0.032;-9979199999.0;-9979194946.0;-5053.0;0.0;3.1244261473417283;-3.427606147394343;0.0;250.0;-250.0
0.036000000000000004;-9979199999.0;-9979194946.0;-5053.0;0.0;1.7171728616729378;-2.0203528617255526;0.0;0.0;0.0
0.04000000000000001;-9979199999.0;-9979211426.0;11427.0;0.0;-6.440811407767236;7.126431407722669;0.0;83.33333333333333;-83.33333333333333
0.04400000000000001;-9979199999.0;-9979216919.0;16920.0;0.0;-7.9459047678262;8.961104767789752;0.0;-166.66666666666666;166.66666666666666
0.048000000000000015;-9979199999.0;-9979194946.0;-5053.0;0.0;3.797771760471165;-4.10095176052378;0.0;0.0;0.0
0.05200000000000002;-9979304317.0;-9979200439.0;440.0;-26.079410005771408;1.714840313129127;-1.6884403131043721;-6519.8525014428515;0.0;-6519.8525014428515
0.05600000000000002;-9979399794.0;-9979205933.0;-35426.0;-23.869094663411946;-2.000115585885942;-10.465522990646232;552.5788355898653;0.0;552.5788355898653
0.060000000000000026;-9979519189.0;-9979222412.0;-119149.0;-29.84877823763169;-2.2121805360242726;-29.98700492969773;-1494.9208935549364;-250.0;-1244.9208935549364
0.06400000000000003;-9979647834.0;-9979266357.0;-180216.0;-32.161250606612654;-8.873629099942743;-28.192227734613287;-578.1180922452406;-500.0;-78.11809224524069
0.06800000000000003;-9979779772.0;-9979315796.0;-253699.0;-32.98452886009761;-15.382383316658437;-30.57015687444353;-205.8195633712394;-833.3333333333334;627.513769962094
0.07200000000000004;-9979915825.0;-9979365234.0;-334158.0;-34.01340275548685;-13.660091198645532;-38.86350672894218;-257.2184738473098;-833.3333333333334;576.1148594860235
0.07600000000000004;-9980053092.0;-9979436646.0;-396296.0;-34.31668033625408;-21.21280016683042;-35.952597220618;-75.81939519180736;-666.6666666666666;590.8472714748593
0.08000000000000004;-9980181508.0;-9979530029.0;-439423.0;-32.10390684509821;-25.85620706997067;-34.63679194962404;553.193372788968;-833.3333333333334;1386.5267061223012
0.08400000000000005;-9980292376.0;-9979623413.0;-479789.0;-27.717137221018266;-22.66870658826083;-39.556206616338855;1096.6924060199856;-1000.0;2096.692406019986
0.08800000000000005;-9980377340.0;-9979749756.0;-474957.0;-21.240833692834453;-28.624808271795512;-30.25019843025723;1619.0758820459532;-1166.6666666666667;2785.7425487126197
0.09200000000000005;-9980421224.0;-9979810181.0;-515232.0;-10.971156388370133;-13.60401094149053;-42.4849968511451;2567.41932611608;-250.0;2817.41932611608
0.09600000000000006;-9980414231.0;-9979892578.0;-501663.0;1.7484220234546095;-19.289611692965032;-28.01718250318187;3179.8946029561857;666.6666666666666;2513.227936289519
0.10000000000000006;-9980360310.0;-9979947510.0;-470683.0;13.480045116704252;-12.759243756502867;-21.469952425451055;2932.9057733124105;916.6666666666666;2016.239106645744
0.10400000000000006;-9980269359.0;-9979947510.0;-445382.0;22.737788054792915;0.1647860659584403;-20.562407572448883;2314.4357345221656;1333.3333333333333;981.1024011888326
0.10800000000000007;-9980152445.0;-9979942017.0;-382547.0;29.228646123352924;1.8906717033609748;-7.761636142902691;1622.714517140002;1500.0;122.71451714000214
0.11200000000000007;-9980020502.0;-9979920044.0;-303492.0;32.98554233863146;3.3578033099472524;3.689743961976431;939.2240538196344;1750.0;-810.7759461803656
0.11600000000000008;-9979882174.0;-9979892578.0;-208238.0;34.58219709267245;7.200690276801586;10.985194123028917;399.16368851024765;916.6666666666666;-517.502978156419
0.12000000000000008;-9979742494.0;-9979865112.0;-101317.0;34.919858976674114;4.488602145105601;23.028955791965544;84.41547100041547;583.3333333333334;-498.91786233291793
0.12400000000000008;-9979607855.0;-9979810181.0;-17422.0;33.659731399501716;11.99940099030733;21.66199836443966;-315.0318942930994;500.0;-815.0318942930994
0.12800000000000009;-9979490248.0;-9979755249.0;65320.0;29.40177438064593;16.862064101912082;21.475395492290843;-1064.4892547139468;583.3333333333334;-1647.8225880472803
0.1320000000000001;-9979398709.0;-9979705811.0;143797.0;22.884686061215422;13.679304063491523;26.92741746866554;-1629.2720798576265;500.0;-2129.2720798576265
0.1360000000000001;-9979334276.0;-9979650879.0;196237.0;16.10825561674683;16.35996341055632;22.25705624778815;-1694.1076111171478;166.66666666666666;-1860.7742777838146
0.1400000000000001;-9979294877.0;-9979612427.0;238729.0;9.849878618429512;9.804586296126246;24.75527704003074;-1564.5942495793297;83.33333333333333;-1647.927582912663
0.1440000000000001;-9979276301.0;-9979584961.0;265930.0;4.643883015516279;8.099457957945765;21.522954613304606;-1301.4989007283084;-583.3333333333334;-718.165567394975
0.1480000000000001;-9979271758.0;-9979557495.0;269753.0;1.1359201620623074;6.783307641372085;17.224325241932867;-876.9907133634928;-416.6666666666667;-460.32404669682614
0.1520000000000001;-9979274244.0;-9979562988.0;288380.0;-0.6214495944190775;-1.846201407648623;22.43253584415814;-439.3424391203462;-833.3333333333334;393.99089421298714
0.1560000000000001;-9979278617.0;-9979562988.0;290218.0;-1.093457568964403;-1.0880278475508094;18.960812829901418;-118.00199363633138;-583.3333333333334;465.331339697002
0.16000000000000011;-9979282182.0;-9979557495.0;281532.0;-0.8910534733193016;2.278412476874888;13.815211230395661;50.601023911275355;-583.3333333333334;633.9343572446087
0.16400000000000012;-9979284167.0;-9979557495.0;277490.0;-0.4963861682554359;3.824738176614046;11.81421998756884;98.66682626596644;-166.66666666666666;265.3334929326331
0.16800000000000012;-9979284854.0;-9979557495.0;274547.0;-0.17171105891499897;4.315540363691747;11.42151962135009;81.16877733510924;0.0;81.16877733510924
0.17200000000000013;-9979284835.0;-9979568481.0;284053.0;0.004644246587340691;-1.2431840250343085;17.91639396077218;44.088826375584915;0.0;44.088826375584915
0.17600000000000013;-9979284606.0;-9979552002.0;267160.0;0.057220628263296276;6.907457909658551;9.018450761297473;13.144095418988897;0.0;13.144095418988897
0.18000000000000013;-9979284437.0;-9979557495.0;272752.0;0.042446542488497885;-0.42935883383452894;16.818935462447268;-3.693521443699598;166.66666666666666;-170.36018811036627
0.18400000000000014;-9979284404.0;-9979535522.0;250983.0;0.008068752753929627;4.3835287106782195;10.726506158729308;-8.594447433642065;166.66666666666666;-175.26111410030873
0.18800000000000014;-9979284484.0;-9979513550.0;229126.0;-0.01981092870433694;5.675705475836993;8.100757377159425;-6.969920364566642;416.6666666666667;-423.6365870312333
0.19200000000000014;-9979284618.0;-9979491577.0;207141.0;-0.033645802077783435;6.27974307692051;6.145933250095417;-3.4587183433616233;250.0;-253.45871834336162
0.19600000000000015;-9979284763.0;-9979469604.0;185067.0;-0.0360928227555967;4.74017722530663;6.338709892322689;-0.6117551694533162;250.0;-250.61175516945332
0.20000000000000015;-9979284894.0;-9979453125.0;168450.0;-0.03276437527506601;4.550309075847268;5.522155980280537;0.8321118701326725;0.0;0.8321118701326725
0.20400000000000015;-9979285007.0;-9979447632.0;162818.0;-0.028215648092697384;2.2532457039430738;7.481075488733859;1.1371817955921566;-333.3333333333333;334.47051512892546
0.20800000000000016;-9979285106.0;-9979453125.0;168187.0;-0.02477347405052318;-2.280711609452963;12.340951230834145;0.860543510543551;-416.6666666666667;417.52721017721024
0.21200000000000016;-9979285197.0;-9979453125.0;168079.0;-0.02294951490628395;0.1122878562733531;9.945574611144812;0.45598978605980706;-416.6666666666667;417.1226564527265
0.21600000000000016;-9979285287.0;-9979453125.0;167984.0;-0.022321188385026936;0.24172965422272683;9.813239874051128;0.15708163031425382;-83.33333333333333;83.49041496364758
0.22000000000000017;-9979285376.0;-9979447632.0;162400.0;-0.02225310075755302;1.4621177995353938;8.25917111991013;0.017021906868478626;0.0;0.017021906868478626
0.22400000000000017;-9979285465.0;-9979447632.0;162310.0;-0.022271242704205486;1.1676775349006057;8.548624590841495;-0.004535486663116012;0.0;-0.004535486663116012
0.22800000000000017;-9979285553.0;-9979447632.0;162221.0;-0.022150948685738806;1.3793982090726495;8.33160109819615;0.030073504616669883;0.0;0.030073504616669883
0.23200000000000018;-9979285641.0;-9979447632.0;162133.0;-0.021855235099573572;2.0343249751180412;7.671431583133824;0.07392839654130848;0.0;0.07392839654130848
0.23600000000000018;-9979285727.0;-9979442139.0;156552.0;-0.021436928120422798;0.2663440250083804;9.10474156727371;0.10457674478769365;83.33333333333333;-83.22875658854564
0.24000000000000019;-9979285810.0;-9979436646.0;150971.0;-0.020964361788840962;-1.692343431517482;10.728912315943832;0.1181415828954589;166.66666666666666;-166.5485250837712
0.2440000000000002;-9979285892.0;-9979409180.0;123421.0;-0.020485485666572906;4.224300358071924;3.159707627959265;0.1197190305670141;250.0;-249.880280969433
0.2480000000000002;-9979285972.0;-9979403687.0;117845.0;-0.02002139519475912;1.7871602148711683;5.262762521329146;0.11602261795344657;83.33333333333333;-83.21731071537988
0.25200000000000017;-9979286051.0;-9979392700.0;106777.0;-0.01957419267516199;2.193653924845159;4.192661788162951;0.11180062989928248;0.0;0.11180062989928248
0.25600000000000017;-9979286127.0;-9979392700.0;106697.0;-0.01913754725368208;0.2444830884486437;6.137490105845974;0.10916135536997734;-250.0;250.10916135537
0.2600000000000002;-9979286202.0;-9979403687.0;117606.0;-0.018704215135954227;-5.5364017350599175;12.573358045197537;0.10833302943196332;-166.66666666666666;166.77499969609863
0.2640000000000002;-9979286275.0;-9979392700.0;106544.0;-0.018269419255278172;-0.010046825490891934;6.383718529142538;0.10869897016901366;-166.66666666666666;166.77536563683566
0.2680000000000002;-9979286347.0;-9979392700.0;106470.0;-0.017831237358793505;-0.6101577737182379;6.979823409221221;0.10954547412116676;0.0;0.10954547412116676
0.2720000000000002;-9979286416.0;-9979392700.0;106397.0;-0.017389648671626918;-0.3422289244160056;6.70795068973881;0.1103971717916468;0.0;0.1103971717916468
0.2760000000000002;-9979286484.0;-9979387207.0;100833.0;-0.016945406282935675;2.267461139574647;3.764860138655256;0.11106059717281083;0.0;0.11106059717281083
0.2800000000000002;-9979286550.0;-9979387207.0;100764.0;-0.016499287519229227;2.2847656041532756;3.743858294970843;0.1115296909266119;0.0;0.1115296909266119
0.2840000000000002;-9979286614.0;-9979387207.0;100697.0;-0.01605177828171096;0.9546567946523428;5.070392075318956;0.11187730937956691;0.0;0.11187730937956691
0.2880000000000002;-9979286676.0;-9979365234.0;78659.0;-0.015603062947381438;6.990289971217513;-2.2870744422396436;0.11217883358238032;166.66666666666666;-166.55448783308427
0.2920000000000002;-9979286737.0;-9979348755.0;62117.0;-0.015153137476681974;3.949671583607793;-0.23852807544588028;0.11248136767486602;416.6666666666667;-416.5541852989918
0.2960000000000002;-9979286796.0;-9979332275.0;45575.0;-0.014701928291936277;2.9729185290262103;-0.2538458327629889;0.1128022961864243;333.3333333333333;-333.2205310371469
0.3000000000000002;-9979286853.0;-9979332275.0;45515.0;-0.014249366432106574;0.29373597744852303;2.422187146176532;0.11314046495742572;-83.33333333333333;83.44647379829075
0.3040000000000002;-9979286908.0;-9979326782.0;39964.0;-0.01379541727240403;2.0242244342416527;0.35909042739864194;0.11348728992563581;-416.6666666666667;416.7801539565923
0.3080000000000002;-9979286961.0;-9979315796.0;28922.0;-0.013340076773269944;-0.3548277676329017;2.0760757331776465;0.11383512478352169;0.0;0.11383512478352169
0.3120000000000002;-9979287013.0;-9979315796.0;28867.0;-0.012883360515859293;2.921771060690284;-1.203368602404047;0.1141790643526628;-166.66666666666666;166.78084573101933
0.3160000000000002;-9979287063.0;-9979315796.0;28815.0;-0.01242528840942566;-0.43613852182775736;2.151876857944629;0.11451802660840826;83.33333333333333;-83.21881530672492
0.32000000000000023;-9979287111.0;-9979315796.0;28763.0;-0.01196588151738226;0.07386189589649439;1.639213685937627;0.11485172301084999;-333.3333333333333;333.4481850563442
0.32400000000000023;-9979287157.0;-9979332275.0;45193.0;-0.01150515513234416;-4.243039661593735;6.9423738368733945;0.11518159625952505;0.0;0.11518159625952505
0.32800000000000024;-9979287201.0;-9979326782.0;39653.0;-0.011043123681306707;-2.977651142910123;5.345045240415962;0.11550786275936302;-83.33333333333333;83.44884119609269
0.33200000000000024;-9979287243.0;-9979321289.0;34115.0;-0.010579798994406094;2.144757919728756;-0.10918258616683962;0.11583117172515346;-83.33333333333333;83.44916450505848
0.33600000000000024;-9979287284.0;-9979304810.0;17593.0;-0.010115189150759714;6.486079103596508;-5.441361233498061;0.11615246091159492;250.0;-249.8838475390884
0.34000000000000025;-9979287322.0;-9979315796.0;28537.0;-0.009649308865902824;0.4562934717014432;1.2455282250597617;0.11647007121422248;0.0;0.11647007121422248
0.34400000000000025;-9979287359.0;-9979304810.0;17511.0;-0.009182168238732169;1.5989829211756588;-0.5582561183779469;0.11678515679266381;250.0;-249.88321484320733
0.34800000000000025;-9979287394.0;-9979299316.0;11980.0;-0.008713779099383935;1.9407925598472358;-1.2314593845833905;0.11709728483705849;-166.66666666666666;166.78376395150372
0.35200000000000026;-9979287427.0;-9979304810.0;17437.0;-0.008244155297773661;-1.6817273321524262;2.7189481357155434;0.11740595040256839;0.0;0.11740595040256839
0.35600000000000026;-9979287458.0;-9979282837.0;-4570.0;-0.00777330866403753;3.2087655488178135;-3.4914958737836175;0.11771165843403272;0.0;0.11771165843403272
0.36000000000000026;-9979287487.0;-9979288330.0;891.0;-0.007301251605391547;-3.299141931772232;3.3445417080451225;0.1180142646614959;83.33333333333333;-83.21531906867183
0.36400000000000027;-9979287514.0;-9979293823.0;6354.0;-0.006827996529051707;-4.2987191011235115;4.672370196792397;0.11831376908495989;0.0;0.11831376908495989
0.36800000000000027;-9979287540.0;-9979288330.0;832.0;-0.006353557862013366;1.7531516038402915;-1.7103479831603707;0.11860966675958524;-250.0;250.1186096667596
0.3720000000000003;-9979287563.0;-9979293823.0;6299.0;-0.005877945414633359;-0.20965405235439538;0.5809513903137196;0.11890311184500185;-83.33333333333333;83.45223644517833
0.3760000000000003;-9979287585.0;-9979293823.0;6274.0;-0.005401175922226292;1.051238749884069;-0.6809665147456954;0.11919237310176667;0.0;0.11919237310176667
0.3800000000000003;-9979287605.0;-9979299316.0;11744.0;-0.004923258618069189;-1.7108587180301547;2.409807017456358;0.11947932603927568;83.33333333333333;-83.21385400729406
0.3840000000000003;-9979287622.0;-9979293823.0;6230.0;-0.0044442085062372134;1.6525550556406379;-1.2839695384239835;0.11976252795799398;-83.33333333333333;83.45309586129132
0.3880000000000003;-9979287638.0;-9979293823.0;6211.0;-0.003964038571026182;-0.17446880684047938;0.542392683740051;0.12004248380275795;83.33333333333333;-83.21329084953057
0.3920000000000003;-9979287652.0;-9979288330.0;702.0;-0.003482761508192;-0.46053480175137523;0.49839816616282684;0.12031926570854536;83.33333333333333;-83.21301406762478
0.3960000000000003;-9979287664.0;-9979277344.0;-10299.0;-0.0030003903020304847;3.4420870862305164;-4.063803119465827;0.12059280154037887;83.33333333333333;-83.21274053179295
0.4000000000000003;-9979287674.0;-9979271851.0;-15806.0;-0.002516939956616798;0.385680635727942;-1.3373349645642638;0.12086258635342166;166.66666666666666;-166.54580408031325
0.4040000000000003;-9979287682.0;-9979260864.0;-26804.0;-0.0020324211479274996;-0.4223698396459222;-1.1886816965616294;0.1211297021723246;83.33333333333333;-83.212203631161
0.4080000000000003;-9979287688.0;-9979249878.0;-37799.0;-0.0015468497456574753;2.5504911862164734;-4.820758854780632;0.12139285056750608;83.33333333333333;-83.21194048276583
0.4120000000000003;-9979287693.0;-9979255371.0;-32313.0;-0.001060237868482818;-1.7474455838873983;-0.19317715480788555;0.12165296929366436;-166.66666666666666;166.78831963596033
0.4160000000000003;-9979287695.0;-9979249878.0;-37812.0;-0.0005725999433988776;1.9976215172708034;-4.267698278109565;0.12190948127098507;-250.0;250.121909481271
0.4200000000000003;-9979287695.0;-9979260864.0;-26830.0;-8.394866616156202e-05;-0.033003880605101586;-1.5776658676980655;0.12216281930932889;-83.33333333333333;83.45549615264265
0.4240000000000003;-9979287694.0;-9979271851.0;-15844.0;0.00040570038207415074;-2.8495989956483245;1.8985772811220265;0.12241226205892819;-250.0;250.12241226205893
0.4280000000000003;-9979287690.0;-9979277344.0;-10350.0;0.0008963356597119808;-2.5558786130174993;1.9349859394232474;0.12265881940945753;0.0;0.12265881940945753
0.43200000000000033;-9979287685.0;-9979271851.0;-15841.0;0.0013879415855969502;1.4816722605228425;-2.4315348999313686;0.12290148147124234;0.0;0.12290148147124234
0.43600000000000033;-9979287677.0;-9979277344.0;-10343.0;0.0018805054639731515;-1.1054613362029195;0.4859697111360173;0.12314096959405033;166.66666666666666;-166.5435256970726
0.44000000000000034;-9979287668.0;-9979266357.0;-21324.0;0.0023740122907654204;3.7891876471191646;-5.067047292162929;0.12337670669806722;83.33333333333333;-83.20995662663526
0.44400000000000034;-9979287656.0;-9979271851.0;-15822.0;0.002868447927518314;0.8045064520686865;-1.7517531649137017;0.1236089091882234;0.0;0.1236089091882234
0.44800000000000034;-9979287643.0;-9979271851.0;-15811.0;0.0033637982357763887;-3.1107292726114393;2.1646364292165847;0.12383757706451869;83.33333333333333;-83.20949575626881
0.45200000000000035;-9979287627.0;-9979271851.0;-15799.0;0.003860049942703925;-2.433513737671077;1.4886356872049458;0.12406292673188403;0.0;0.12406292673188403
0.45600000000000035;-9979287610.0;-9979260864.0;-26772.0;0.004357188044225756;1.8159586958661675;-3.4187210440827505;0.1242845253804579;0.0;0.1242845253804579
0.46000000000000035;-9979287590.0;-9979260864.0;-26755.0;0.004855198113346535;1.1270003214702011;-2.7282460718201857;0.12450251728019467;-83.33333333333333;83.45783585061352
0.46400000000000036;-9979287569.0;-9979249878.0;-37723.0;0.005354066011610817;5.326789119459689;-7.585617391074697;0.1247169745660704;0.0;0.1247169745660704
0.46800000000000036;-9979287546.0;-9979249878.0;-37703.0;0.005853776157863624;5.5656424352005125;-7.822772361719721;0.1249275365632018;0.0;0.1249275365632018
0.47200000000000036;-9979287520.0;-9979260864.0;-26695.0;0.006354316721968769;-1.4055657076835633;-0.190585022091178;0.1251351410262863;0.0;0.1251351410262863
0.47600000000000037;-9979287493.0;-9979260864.0;-26671.0;0.006855669525912114;-0.8510077235400677;-0.7432029718210005;0.12533820098583628;0.0;0.12533820098583628
0.48000000000000037;-9979287463.0;-9979266357.0;-21151.0;0.007357822739557467;-4.909737954430282;3.6472281168604423;0.1255383034113383;0.0;0.1255383034113383
0.4840000000000004;-9979287432.0;-9979271851.0;-15629.0;0.007860760204670041;-7.1931046904027465;6.2624165183166465;0.1257343662781434;0.0;0.1257343662781434
0.4880000000000004;-9979287398.0;-9979271851.0;-15599.0;0.00836446691717467;-1.9599652850478888;1.0315795723551289;0.12592667812615738;-83.33333333333333;83.45926001145949
