Zeit[sec];Sollposition[°];Istposition[°];Positionsschleppfehler[°];Sollgeschwindigkeit[°/s];Istgeschwindigkeit[°/s];Geschwindigkeitsdifferenz[°/s];Sollbeschleunigung[°/s*s];Istbeschleunigung[°/s*s];Beschleunigungsdifferenz[°/s*s]
0.0;-9979199999.0;-9979205933.0;5934.0;0.0;-2.4949561998322607;2.8509961998488236;0.0;83.33333333333333;-83.33333333333333
0.004;-9979199999.0;-9979194946.0;-5053.0;0.0;1.6772079926356673;-1.9803879926882821;0.0;0.0;0.0
0.008;-9979199999.0;-9979200439.0;440.0;0.0;-0.6741225457936525;0.7005225458184072;0.0;0.0;0.0
0.012;-9979199999.0;-9979194946.0;-5053.0;0.0;1.5681977976709605;-1.8713777977235753;0.0;0.0;0.0
0.016;-9979199999.0;-9979194946.0;-5053.0;0.0;1.2965413603186609;-1.5997213603712757;0.0;0.0;0.0
0.02;-9979199999.0;-9979194946.0;-5053.0;0.0;0.26749738430976866;-0.5706773843623835;0.0;0.0;0.0
0.024;-9979199999.0;-9979194946.0;-5053.0;0.0;0.9044993779435754;-1.20767937799619;0.0;0.0;0.0
0.028;-9979199999.0;-9979205933.0;5934.0;0.0;-4.2574712966904045;4.613511296706967;0.0;0.0;0.0
0.032;-9979199999.0;-9979194946.0;-5053.0;0.0;0.5800978138893843;-0.8832778139419991;0.0;0.0;0.0
0.036000000000000004;-9979199999.0;-9979200439.0;440.0;0.0;0.880203969925642;-0.8538039699008872;0.0;0.0;0.0
0.04000000000000001;-9979200563.0;-9979194946.0;-5053.0;-0.14077839152337462;1.4950255039557816;-1.7982055040083964;-35.19459788084366;0.0;-35.19459788084366
0.04400000000000001;-9979206174.0;-9979194946.0;-5277.0;-1.402951398088329;1.243329798489809;-1.615766231135454;-315.5432516412386;0.0;-315.5432516412386
0.048000000000000015;-9979378154.0;-9979205933.0;3149.0;-42.994873462371594;-1.9829297837391495;1.5314843899710922;-10397.980516070817;0.0;-10397.980516070817
0.05200000000000002;-9979691603.0;-9979216919.0;-57409.0;-78.36233730070893;-4.958775281384588;-16.371867796466162;-8841.865959584335;0.0;-8841.865959584335
0.05600000000000002;-9980272465.0;-9979244385.0;-257039.0;-145.21533825632503;-4.830947909101844;-67.36520968021337;-16713.250238904024;-583.3333333333334;-16129.916905570692
0.060000000000000026;-9981157327.0;-9979442139.0;-477930.0;-221.21555534822247;-54.55423872680217;-78.78283764124188;-19000.05427297436;-1833.3333333333333;-17166.720939641025
0.06400000000000003;-9982412024.0;-9980057373.0;-562522.0;-313.6741674045065;-168.8698331870064;-39.838006840338835;-23114.653014071002;-7833.333333333333;-15281.31968073767
0.06800000000000003;-9984192484.0;-9981238403.0;-411207.0;-445.11514719307894;-294.5337414386794;12.432684847928215;-32860.24494714312;-18833.333333333332;-14026.911613809783
0.07200000000000004;-9986671329.0;-9982644653.0;-465944.0;-619.7110226148261;-353.98653674791007;-39.2168156973234;-43648.96885543679;-25333.333333333332;-18315.63552210346
0.07600000000000004;-9990000142.0;-9984468384.0;-696491.0;-832.2033735220714;-470.2357218623683;-85.12325988384174;-53123.08772681132;-25166.666666666668;-27956.421060144654
0.08000000000000004;-9994305751.0;-9987028198.0;-948429.0;-1076.402156708042;-654.2283722832054;-105.61526456577042;-61049.69579649264;-26083.333333333332;-34966.36246315931
0.08400000000000005;-9999706240.0;-9990450439.0;-1237305.0;-1350.1221839562515;-864.7638365131766;-137.25376656756976;-68430.0068120524;-35500.0;-32930.006812052394
0.08800000000000005;-10006307362.0;-9994894409.0;-1527323.0;-1650.2803183502779;-1129.5261163559705;-145.61028203527735;-75039.53359850658;-48500.0;-26539.53359850658
0.09200000000000005;-10014181399.0;-10000541382.0;-1750456.0;-1968.509341017813;-1423.7024351463094;-148.85129084173445;-79557.25566688381;-60083.333333333336;-19473.92233355047
0.09600000000000006;-10023376164.0;-10007374878.0;-2015738.0;-2298.6910314469974;-1724.8928713559062;-170.74582308488948;-82545.42260729607;-67416.66666666667;-15128.755940629404
0.10000000000000006;-10033911974.0;-10015466309.0;-2314534.0;-2633.9524577621482;-2046.7998710553572;-189.6287679489344;-83815.35657878772;-73916.66666666667;-9898.689912121043
0.10400000000000006;-10045760948.0;-10025029907.0;-2469665.0;-2962.2433380930047;-2393.7440603345185;-184.11812984432254;-82072.7200827141;-79416.66666666667;-2656.0534160474417
0.10800000000000007;-10058860159.0;-10035873413.0;-2674761.0;-3274.8026774904083;-2746.2273004598915;-176.40859938853964;-78139.83484935091;-81666.66666666667;3526.831817315767
0.11200000000000007;-10073127620.0;-10048178101.0;-2707052.0;-3566.865012475012;-3091.7279132864846;-154.93985976094973;-73015.58374615092;-87000.0;13984.416253849076
0.11600000000000008;-10088458645.0;-10061625366.0;-2814865.0;-3832.756020039686;-3363.370967428327;-194.29036003022293;-66472.75189116852;-84333.33333333333;17860.581442164814
0.12000000000000008;-10104725450.0;-10076275635.0;-2846898.0;-4066.7011741613974;-3675.5147196247576;-165.87450005865594;-58486.28853042783;-80583.33333333333;22097.0448029055
0.12400000000000008;-10121786451.0;-10091986084.0;-2832265.0;-4265.24981088458;-3925.716271237463;-168.17329189596967;-49637.15918079572;-74916.66666666667;25279.507485870952
0.12800000000000009;-10139496447.0;-10108630371.0;-2764186.0;-4427.498935627856;-4174.885041355521;-135.0179525567146;-40562.28118581885;-67333.33333333333;26771.05214751448
0.1320000000000001;-10157707939.0;-10126104126.0;-2604095.0;-4552.872785401807;-4363.220735234007;-121.44064755035924;-31343.46244348785;-64416.666666666664;33073.204223178815
0.1360000000000001;-10176287045.0;-10144121704.0;-2491545.0;-4644.776269789363;-4503.756973716222;-121.99275591528021;-22975.871096889023;-52500.0;29524.128903110977
0.1400000000000001;-10195133672.0;-10162655640.0;-2311916.0;-4711.6564659214855;-4614.6260760457;-112.66535252283848;-16720.04903303059;-45250.0;28529.95096696941
0.1440000000000001;-10214167612.0;-10181618042.0;-2032534.0;-4758.484688934825;-4736.423716098115;-56.283049475679945;-11707.055753334771;-33416.666666666664;21709.610913331893
0.1480000000000001;-10233315554.0;-10200772705.0;-1797197.0;-4786.985330478692;-4795.135066560418;-42.5280019456668;-7125.160385966865;-27166.666666666668;20041.506280699803
0.1520000000000001;-10252519646.0;-10220086670.0;-1561275.0;-4801.02277898645;-4828.029948629931;-35.156915235349516;-3509.36212693955;-18916.666666666668;15407.304539727118
0.1560000000000001;-10271742343.0;-10239362183.0;-1455298.0;-4805.674000330662;-4835.948954363547;-43.752889166778914;-1162.8053360529975;-11250.0;10087.194663947002
0.16000000000000011;-10290963926.0;-10258796997.0;-1231624.0;-4805.395558517691;-4843.839595774055;-32.84250912522566;69.61045324283077;-7333.333333333333;7402.943786576164
0.16400000000000012;-10310177486.0;-10278330688.0;-920079.0;-4803.389922730154;-4889.9410654523745;29.199976199945922;501.40894688433946;-4333.333333333333;4834.7422802176725
0.16800000000000012;-10329383288.0;-10297688599.0;-780577.0;-4801.450075516428;-4844.021893161505;-7.414713599562674;484.96180343136075;-4166.666666666667;4651.628470098028
0.17200000000000013;-10348584228.0;-10317178345.0;-501362.0;-4800.2347809029825;-4875.070961237282;42.35668584502491;303.8236533614054;83.33333333333333;220.49032002807206
0.17600000000000013;-10367783161.0;-10336563721.0;-319906.0;-4799.733075160776;-4861.9824039094;41.80844742590489;125.42643555161703;833.3333333333334;-707.9068977817163
0.18000000000000013;-10386981875.0;-10355987549.0;-96250.0;-4799.678320164015;-4837.40923897019;31.59125568788204;13.68874919035079;-166.66666666666666;180.35541585701745
0.18400000000000014;-10406181089.0;-10375257568.0;-25089.0;-4799.803167185824;-4818.79675302764;17.577107685501687;-31.211755452432044;2083.3333333333335;-2114.5450887857655
0.18800000000000014;-10425380849.0;-10394500122.0;18551.0;-4799.939863700811;-4805.473595255092;6.858514367625503;-34.17412874659931;2666.6666666666665;-2700.840795413266
0.19200000000000014;-10444580939.0;-10413814087.0;133089.0;-4800.022224134833;-4833.262680926904;41.39138723427004;-20.590108505530225;5000.0;-5020.59010850553
0.19600000000000015;-10463781132.0;-10433018188.0;137302.0;-4800.047995204737;-4812.072599815578;20.339002445725782;-6.442767476073641;1083.3333333333333;-1089.776100809407
0.20000000000000015;-10482981292.0;-10452222290.0;141275.0;-4800.039871829359;-4787.712348991447;-3.843110389296271;2.0308438445226784;833.3333333333334;-831.3024894888107
0.20400000000000015;-10502181376.0;-10471448364.0;167170.0;-4800.0208589538515;-4804.506227315068;14.491803904164954;4.753218876885512;1083.3333333333333;-1078.5801144564477
0.20800000000000016;-10521381396.0;-10490597534.0;116210.0;-4800.004707674026;-4771.082728650376;-21.97705246878195;4.0378199564656825;416.6666666666667;-412.628846710201
0.21200000000000016;-10540581381.0;-10509724731.0;43348.0;-4799.995921904509;-4783.718442579598;-13.695244047919914;2.196442379272412;3000.0;-2997.8035576207276
0.21600000000000016;-10559781356.0;-10528835449.0;-45941.0;-4799.993476023851;-4786.545869633705;-16.211909256358922;0.6114701643582521;1666.6666666666667;-1666.0551965023085
0.22000000000000017;-10578981335.0;-10547995605.0;-85766.0;-4799.9945052364665;-4788.922465139039;-16.218498491104583;-0.2573031538304349;1916.6666666666667;-1916.9239698204972
0.22400000000000017;-10598181322.0;-10567161255.0;-120093.0;-4799.996516510814;-4801.22280140835;-5.9766770134801845;-0.5028185869377921;-916.6666666666666;916.1638480797288
0.22800000000000017;-10617381315.0;-10586134644.0;-346686.0;-4799.998133604446;-4726.56823973459;-94.22821691016543;-0.4042734078666399;-666.6666666666666;666.2623932588
0.23200000000000018;-10636581312.0;-10605157471.0;-523848.0;-4799.998961349841;-4757.846376660175;-73.58164921811385;-0.20693634883173218;4166.666666666667;-4166.873603015499
0.23600000000000018;-10655781309.0;-10624224243.0;-657071.0;-4799.999149645214;-4759.884107129328;-79.53860518801503;-0.04707384323410224;1333.3333333333333;-1333.3804071765674
0.24000000000000019;-10674981306.0;-10643422852.0;-658459.0;-4799.999007217299;-4792.99052618061;-46.51604497534663;0.035606978826763225;416.6666666666667;-416.6310596878399
0.2440000000000002;-10694181302.0;-10662500610.0;-780698.0;-4799.9987857248325;-4782.247001618646;-64.5939704528073;0.05537311653824872;-3500.0;3500.0553731165382
0.2480000000000002;-10713381298.0;-10681600342.0;-880962.0;-4799.99861601143;-4770.0755649358925;-82.78107529766658;0.04242835052536975;-833.3333333333334;833.3757616838587
0.25200000000000017;-10732581293.0;-10700804443.0;-876857.0;-4799.998529807247;-4811.755429092698;-40.854710641110614;0.021551045847445494;166.66666666666666;-166.6451156208192
0.25600000000000017;-10751781288.0;-10719997559.0;-883737.0;-4799.998507061648;-4780.20423913163;-72.81856369558136;0.005686399845217238;-3500.0;3500.005686399845
0.2600000000000002;-10770981283.0;-10739338989.0;-742302.0;-4799.998514956099;-4840.48259016265;-4.05405113141569;-0.0019736128251679474;-1833.3333333333333;1833.331359720508
0.2640000000000002;-10790181278.0;-10758652954.0;-628332.0;-4799.998528443031;-4850.040683743604;12.34225341867932;-0.0033717331007210305;-4083.3333333333335;4083.3299616002328
0.2680000000000002;-10809381273.0;-10778109741.0;-371540.0;-4799.998535348368;-4858.772982237377;36.482061980085746;-0.0017263341760553885;-3083.3333333333335;3083.3316069991574
0.2720000000000002;-10828581268.0;-10797451172.0;-230104.0;-4799.998533398993;-4834.911909414016;21.10713831223984;0.0004873438683716813;-4083.3333333333335;4083.333820677202
0.2760000000000002;-10847781263.0;-10816814575.0;-66696.0;-4799.9985251427115;-4830.243917930372;26.243623395245777;0.002064070258711581;-1500.0;1500.0020640702587
0.2800000000000002;-10866981258.0;-10836287842.0;206576.0;-4799.9985140656645;-4863.626912909076;76.02294277206329;0.002769261755020125;666.6666666666666;-666.6638974049116
0.2840000000000002;-10886181253.0;-10855590820.0;309559.0;-4799.998502651026;-4822.309446756691;40.88446595761798;0.0028536596801131964;-250.0;250.0028536596801
0.2880000000000002;-10905381247.0;-10874921265.0;440009.0;-4799.9984920212155;-4838.225880044527;64.6279104397081;0.002657452569110319;2166.6666666666665;-2166.6640092140974
0.2920000000000002;-10924581242.0;-10894141846.0;460595.0;-4799.998482316464;-4812.564890195854;40.20209169259033;0.002426187847959227;2500.0;-2499.997573812152
0.2960000000000002;-10943781237.0;-10913439331.0;558086.0;-4799.998473242462;-4812.641010036439;46.127681800733626;0.0022685005660605384;2416.6666666666665;-2416.6643981661005
0.3000000000000002;-10962981232.0;-10932714844.0;633604.0;-4799.998464419488;-4815.282987585172;53.3007488095318;0.0022057433852751274;166.66666666666666;-166.66446092328138
0.3040000000000002;-10982181227.0;-10951875000.0;593765.0;-4799.998455608634;-4792.11191381494;27.739344017408257;0.0022027136310498463;1000.0;-999.997797286369
0.3080000000000002;-11001381221.0;-10971073608.0;592378.0;-4799.998446710062;-4808.803560995139;44.34778001736595;0.0022246429125516443;3166.6666666666665;-3166.664442023754
0.3120000000000002;-11020581216.0;-10990277710.0;596485.0;-4799.998437716851;-4818.316851027436;54.10749889520048;0.0022483027350972407;1666.6666666666667;-1666.6644183639316
0.3160000000000002;-11039781211.0;-11009487305.0;606086.0;-4799.9984286624685;-4788.246898519867;24.613615323311933;0.002263595661133877;-750.0;750.0022635956611
0.32000000000000023;-11058981205.0;-11028641968.0;560754.0;-4799.998419591928;-4792.8351256102105;26.481931430566874;0.0022676351818518015;0.0;0.0022676351818518015
0.32400000000000023;-11078181200.0;-11047752686.0;471477.0;-4799.998410515617;-4767.075499829851;-4.63430528920253;0.0022690776404488133;166.66666666666666;-166.6643975890262
0.32800000000000024;-11097381194.0;-11066918335.0;437132.0;-4799.998401462389;-4782.167009124317;8.396513077789677;0.0022633071239397395;2916.6666666666665;-2916.6644033595426
0.33200000000000024;-11116581189.0;-11085726929.0;45731.0;-4799.998392416085;-4715.222375532307;-82.03217144709743;0.0022615759007749148;3750.0;-3749.997738424099
0.33600000000000024;-11135781183.0;-11104749756.0;-131436.0;-4799.998383374977;-4753.33604766316;-54.54851026542383;0.002260277142340783;5500.0;-5499.997739722858
0.34000000000000025;-11154981178.0;-11123772583.0;-308604.0;-4799.998374339638;-4756.801946970419;-61.712681913872984;0.002258834683743771;2166.6666666666665;-2166.6644078319828
0.34400000000000025;-11174181172.0;-11142861328.0;-419853.0;-4799.998365311224;-4750.306822932132;-74.882736913597;0.0022571034605789464;-3083.3333333333335;3083.335590436794
0.34800000000000025;-11193381166.0;-11161928101.0;-553075.0;-4799.998356282233;-4771.570889850676;-61.61198096224416;0.002257247842862853;-2250.0;2250.002257247843
0.35200000000000026;-11212581161.0;-11180972900.0;-708270.0;-4799.99834724978;-4759.293749625884;-83.20081215839764;0.00225811322707159;-1333.3333333333333;1333.3355914465603
0.35600000000000026;-11231781155.0;-11200144043.0;-737121.0;-4799.998338224828;-4799.910554621801;-44.31505813219701;0.002256237848996534;833.3333333333334;-833.3310770954844
0.36000000000000026;-11250981149.0;-11219260254.0;-820905.0;-4799.998329202763;-4799.367238141194;-49.88540558310706;0.0022555163923243526;-2166.6666666666665;2166.668922183059
0.36400000000000027;-11270181143.0;-11238453369.0;-827784.0;-4799.998320179543;-4798.543243318915;-51.1221313815804;0.00225580492951849;-2166.6666666666665;2166.668922471596
0.36800000000000027;-11289381137.0;-11257767334.0;-713813.0;-4799.998311165556;-4834.884086807288;-7.943018870736523;0.002253496859339066;-3500.0;3500.0022534968593
0.3720000000000003;-11308581132.0;-11277070313.0;-610828.0;-4799.998302146376;-4821.190535769209;-15.457460889210779;0.0022547949356521713;-4583.333333333333;4583.335588128269
0.3760000000000003;-11327781126.0;-11296444702.0;-436433.0;-4799.998293141622;-4847.902021823883;21.71773418156681;0.002251188561785966;-2750.0;2750.002251188562
0.3800000000000003;-11346981120.0;-11315670776.0;-410354.0;-4799.9982841351375;-4817.701839293741;-6.917699335280304;0.002251621026516659;-1166.6666666666667;1166.6689182876933
0.3840000000000003;-11366181114.0;-11335045166.0;-235958.0;-4799.998275128076;-4847.179591550216;33.023821926914934;0.0022517654088005656;1166.6666666666667;-1166.664414901258
0.3880000000000003;-11385381108.0;-11354392090.0;-89028.0;-4799.998266130247;-4837.779579947211;32.439619330504684;0.002249457111247466;-1083.3333333333333;1083.3355827904445
0.3920000000000003;-11404581102.0;-11373788452.0;107340.0;-4799.99825713415;-4824.928673738093;31.37080212487308;0.0022490244191430975;-2916.6666666666665;2916.6689156910857
0.3960000000000003;-11423781096.0;-11393168335.0;287229.0;-4799.9982481455545;-4841.97753304597;59.213010429803944;0.0022471488136943663;-1000.0;1000.0022471488137
0.4000000000000003;-11442981089.0;-11412465820.0;384720.0;-4799.998239155805;-4835.11853691867;58.20348329569788;0.0022474373508885037;1000.0;-999.9977525626491
0.4040000000000003;-11462181083.0;-11431840210.0;559117.0;-4799.9982301729815;-4830.722606793865;64.27138215996001;0.0022457059003500035;1500.0;-1499.9977542940996
0.4080000000000003;-11481381077.0;-11451016846.0;535759.0;-4799.998221194774;-4803.9263883558815;36.073692708974704;0.002244551978947129;2083.3333333333335;-2083.3310887813545
0.4120000000000003;-11500578986.0;-11470193481.0;512400.0;-4799.4770383524165;-4779.059291082315;9.805064416388632;130.29571058928013;2000.0;-1869.7042894107199
0.4160000000000003;-11519768543.0;-11489436035.0;555787.0;-4797.389098469428;-4818.124898029998;51.68053763604166;521.9849707470985;4333.333333333333;-3811.3483625862345
0.4200000000000003;-11538941559.0;-11508634644.0;559786.0;-4793.253609644361;-4805.173645834781;40.108549216312895;1033.8722062667784;-83.33333333333333;1117.2055396001117
0.4240000000000003;-11558073629.0;-11527888184.0;630279.0;-4783.017393188471;-4815.407748102084;57.462812311893686;2559.054113972479;166.66666666666666;2392.3874473058127
0.4280000000000003;-11577106629.0;-11547015381.0;600597.0;-4758.249723341507;-4793.573756492026;40.3902353516869;6191.9174617410135;-333.3333333333333;6525.250795074347
0.43200000000000033;-11595986415.0;-11566093140.0;585326.0;-4719.946331727771;-4751.255872154102;13.118055234436724;9575.847903433896;1666.6666666666667;7909.181236767229
0.43600000000000033;-11614568220.0;-11584879761.0;399113.0;-4645.450928464513;-4694.88395058988;-24.377419532683234;18623.85081581465;6583.333333333333;12040.517482481315
0.44000000000000034;-11632817298.0;-11603578491.0;335304.0;-4562.269365688263;-4659.874706311844;-10.641555947906454;20795.390694062462;8333.333333333334;12462.057360729128
0.44400000000000034;-11650592042.0;-11622084961.0;390144.0;-4443.685828396309;-4615.1333139378285;25.63471889862376;29645.884322988422;11833.333333333334;17812.550989655087
0.44800000000000034;-11667755766.0;-11640075073.0;317295.0;-4290.930617191437;-4490.346450612157;-6.356087377023869;38188.80280121812;13583.333333333334;24605.46946788478
0.45200000000000035;-11684161349.0;-11657570801.0;277760.0;-4101.395669738227;-4364.878781758711;-2.2712176089107743;47383.73686330237;21666.666666666668;25717.07019663571
0.45600000000000035;-11699653796.0;-11674204102.0;44347.0;-3873.1115212558266;-4158.248577357456;-55.76862471791992;57071.03712060018;32000.0;25071.03712060018
0.46000000000000035;-11714089652.0;-11690227661.0;19925.0;-3608.963815904047;-3994.880850976013;-15.918777161520666;66036.92633794493;40166.666666666664;25870.259671278254
0.46400000000000036;-11727358394.0;-11705322876.0;36265.0;-3317.185442814767;-3770.4834673395007;2.940681515295637;72944.59327231994;45333.333333333336;27611.2599389866
0.46800000000000036;-11739367495.0;-11719489746.0;223830.0;-3002.275072077927;-3532.670467522435;51.27427705020273;78727.59268421009;50666.666666666664;28060.926017543432
0.47200000000000036;-11750045109.0;-11732431641.0;389573.0;-2669.4032885875076;-3207.487230888598;36.823570691667555;83217.94587260479;56916.666666666664;26301.279205938125
