Zeit[sec];Sollposition[°];Istposition[°];Positionsschleppfehler[°];Sollgeschwindigkeit[°/s];Istgeschwindigkeit[°/s];Geschwindigkeitsdifferenz[°/s];Sollbeschleunigung[°/s*s];Istbeschleunigung[°/s*s];Beschleunigungsdifferenz[°/s*s]
0.0;-9979199999.0;-9979200439.0;440.0;0.0;1.156070842705667;-1.1296708426809121;0.0;0.0;0.0
0.004;-9979199999.0;-9979200439.0;440.0;0.0;0.42866552049666645;-0.40226552047191166;0.0;0.0;0.0
0.008;-9979199999.0;-9979200439.0;440.0;0.0;-0.497365329541266;0.5237653295660207;0.0;0.0;0.0
0.012;-9979199999.0;-9979194946.0;-5053.0;0.0;0.580132714226842;-0.8833127142794568;0.0;83.33333333333333;-83.33333333333333
0.016;-9979199999.0;-9979194946.0;-5053.0;0.0;3.203212497599423;-3.5063924976520378;0.0;-83.33333333333333;83.33333333333333
0.02;-9979199999.0;-9979205933.0;5934.0;0.0;-3.991347135901451;4.347387135918014;0.0;0.0;0.0
0.024;-9979199999.0;-9979194946.0;-5053.0;0.0;1.7421395213976503;-2.0453195214502653;0.0;-83.33333333333333;83.33333333333333
0.028;-9979199999.0;-9979200439.0;440.0;0.0;0.44590725438296797;-0.4195072543582132;0.0;83.33333333333333;-83.33333333333333
0.032;-9979199999.0;-9979194946.0;-5053.0;0.0;2.1282305603697895;-2.431410560422404;0.0;0.0;0.0
0.036000000000000004;-9979200562.0;-9979194946.0;-5053.0;-0.1407365295765876;0.43653685166686773;-0.7397168517194825;-35.1841323941469;83.33333333333333;-118.51746572748023
0.04000000000000001;-9979206173.0;-9979200439.0;217.0;-1.4025342161262755;-1.5527620409801604;1.5099822060033812;-315.44942163742195;0.0;-315.44942163742195
0.04400000000000001;-9979378066.0;-9979205933.0;3150.0;-42.97335113336365;-1.9138291434049606;1.462634174804212;-10392.704229309344;-83.33333333333333;-10309.37089597601
0.048000000000000015;-9979691373.0;-9979200439.0;-73854.0;-78.32683532342921;0.3130958126112819;-22.62165604656063;-8838.37104751639;-83.33333333333333;-8755.037714183056
0.05200000000000002;-9980271997.0;-9979216919.0;-284361.0;-145.15593878704948;-5.039022529110313;-68.76951368207887;-16707.275865905067;-83.33333333333333;-16623.942532571735
0.05600000000000002;-9981156532.0;-9979365234.0;-554511.0;-221.1336928302051;-39.19587345918268;-98.691167861492;-18994.438510788903;-1416.6666666666667;-17577.771844122235
0.060000000000000026;-9982410774.0;-9979815674.0;-803625.0;-313.5605046321115;-124.13836068236829;-98.96749365222063;-23106.702950476596;-5666.666666666667;-17440.036283809928
0.06400000000000003;-9984190603.0;-9980969238.0;-679399.0;-444.9572121451078;-293.88226919940115;-4.215968188711429;-32849.17687824908;-16500.0;-16349.176878249082
0.06800000000000003;-9986668598.0;-9982485352.0;-623747.0;-619.498669679346;-375.89517310108243;-26.645329635950816;-43635.36438355955;-27250.0;-16385.364383559547
0.07200000000000004;-9989996306.0;-9984259644.0;-903017.0;-831.9270277576263;-455.8177055977583;-111.75358466633509;-53107.08951957008;-28000.0;-25107.08951957008
0.07600000000000004;-9994300524.0;-9986824951.0;-1148512.0;-1076.05444886023;-654.7366750514582;-116.87453555999559;-61031.85527565091;-28250.0;-32781.85527565091
0.08000000000000004;-9999699308.0;-9990241699.0;-1441664.0;-1349.6959687714134;-866.0641731469408;-147.91070517625087;-68410.37997779585;-33833.333333333336;-34577.04664446252
0.08400000000000005;-10006298400.0;-9994630737.0;-1785100.0;-1649.7729602417135;-1120.0653882849292;-170.1592134632824;-75019.24786757502;-47166.666666666664;-27852.581200908353
0.08800000000000005;-10014170119.0;-10000261230.0;-2022881.0;-1967.9296415958806;-1420.7986254076213;-167.64267349804118;-79539.1703385418;-60000.0;-19539.170338541793
0.09200000000000005;-10023362331.0;-10007111206.0;-2269541.0;-2298.052832363449;-1726.222857319154;-184.1084522595063;-82530.79769189208;-67750.0;-14780.797691892076
0.09600000000000006;-10033895409.0;-10015219116.0;-2549448.0;-2633.2692769789;-2052.1658018052503;-197.75520745019912;-83804.11115386277;-74833.33333333333;-8970.777820529449
0.10000000000000006;-10045741538.0;-10024782715.0;-2701956.0;-2961.5322198395256;-2393.1313251262977;-198.0126341993282;-82065.73571515639;-80416.66666666667;-1649.0690484897214
0.10400000000000006;-10058837883.0;-10035648193.0;-2882304.0;-3274.0861883845314;-2738.8185316465424;-195.5759542130022;-78138.49213625144;-82166.66666666667;4028.174530415228
0.10800000000000007;-10073102555.0;-10048002319.0;-2862304.0;-3566.1678146314066;-3097.3764846008494;-157.89332443017884;-73020.4065617188;-87333.33333333333;14312.926771614528
0.11200000000000007;-10088430960.0;-10061488037.0;-2928829.0;-3832.1009159125483;-3373.945321947776;-189.84503655877506;-66483.27532028544;-84666.66666666667;18183.391346381242
0.11600000000000008;-10104695401.0;-10076149292.0;-2947154.0;-4066.11019585473;-3675.3563058072627;-171.36765249857262;-58502.31998554546;-80500.0;21997.680014454545
0.12000000000000008;-10121754364.0;-10091865234.0;-2924508.0;-4264.740478544998;-3922.312990899794;-176.4812263494855;-49657.57067256697;-74583.33333333333;24925.76266076635
0.12400000000000008;-10139462675.0;-10108542480.0;-2821234.0;-4427.0775282891345;-4183.658322960377;-129.10856825821338;-40584.26243603412;-67000.0;26415.73756396588
0.12800000000000009;-10157672830.0;-10126027222.0;-2648256.0;-4552.538413182348;-4366.008005889065;-120.82808705045136;-31365.22122330348;-64083.333333333336;32718.112110029855
0.1320000000000001;-10176250930.0;-10144050293.0;-2528664.0;-4644.524925316806;-4508.117028394438;-119.47242677762551;-22996.628033614343;-52416.666666666664;29420.03863305232
0.1360000000000001;-10195096846.0;-10162600708.0;-2331348.0;-4711.478858863502;-4622.879041274816;-105.27634430718444;-16738.483386674034;-45166.666666666664;28428.18327999263
0.1400000000000001;-10214130313.0;-10181568604.0;-2045581.0;-4758.36647998796;-4734.655148393184;-58.611841950062626;-11721.90528111446;-33666.666666666664;21944.761385552207
0.1440000000000001;-10233277961.0;-10200717773.0;-1815120.0;-4786.911762530531;-4790.934191890075;-47.6497679257709;-7136.320635642733;-27000.0;19863.679364357267
0.1480000000000001;-10252481892.0;-10220031738.0;-1578794.0;-4800.982551096268;-4831.573129096038;-32.56401724492753;-3517.6971414343825;-18500.0;14982.302858565617
0.1520000000000001;-10271704523.0;-10239296265.0;-1483561.0;-4805.657544865429;-4839.1728253689635;-42.16418745680312;-1168.7484422902799;-10416.666666666666;9247.918224376386
0.1560000000000001;-10290926098.0;-10258747559.0;-1243283.0;-4805.393302581412;-4847.516405576877;-29.83424147534697;66.06057100430007;-7666.666666666667;7732.727237670967
0.16000000000000011;-10310139674.0;-10278248291.0;-964654.0;-4803.393823684091;-4872.435989528954;9.031365141995593;499.8697243302104;-4750.0;5249.86972433021
0.16400000000000012;-10329345494.0;-10297694092.0;-737262.0;-4801.454931452627;-4862.004864649728;13.167055914678713;484.72305786617653;-4833.333333333333;5318.05639119951
0.16800000000000012;-10348546448.0;-10317233276.0;-408626.0;-4800.238216086279;-4889.550008961014;62.395650054867474;304.17884158691777;-833.3333333333334;1137.5121749202513
0.17200000000000013;-10367745388.0;-10336706543.0;-139295.0;-4799.734664988252;-4882.016928167008;72.6753446492994;125.8877745067366;-666.6666666666666;792.5544411734032
0.17600000000000013;-10386944103.0;-10356174316.0;128294.0;-4799.678566965469;-4852.851535912253;60.50348077676881;14.024505695715561;-833.3333333333334;847.3578390290489
0.18000000000000013;-10406143315.0;-10375526733.0;281848.0;-4799.802756223917;-4843.785111615322;60.98061812181368;-31.04731461189658;2083.3333333333335;-2114.38064794523
0.18400000000000014;-10425343073.0;-10394802246.0;358448.0;-4799.939299112466;-4813.276316674709;35.05506190931101;-34.13572213730731;2916.6666666666665;-2950.802388803974
0.18800000000000014;-10444543161.0;-10414138184.0;494960.0;-4800.0217518105865;-4836.021939964667;65.86337429046853;-20.613174530126344;5333.333333333333;-5353.946507863459
0.19200000000000014;-10463743352.0;-10433342285.0;499176.0;-4800.047669132136;-4809.407081011005;39.38645074808028;-6.479330387492155;2166.6666666666665;-2173.1459970541587
0.19600000000000015;-10482943512.0;-10452590332.0;547096.0;-4800.039652517101;-4794.913500684925;27.707716182501827;2.0041537588895153;1666.6666666666667;-1664.6625129077772
0.20000000000000015;-10502143596.0;-10471766968.0;523554.0;-4800.020687228749;-4794.919690903463;26.288592093250372;4.741322087966182;2000.0;-1995.2586779120338
0.20400000000000015;-10521343615.0;-10490844727.0;401183.0;-4800.004540652124;-4751.256381509907;-24.70481853905676;4.036644156258262;1833.3333333333333;-1829.296689177075
0.20800000000000016;-10540543599.0;-10509900513.0;256910.0;-4799.99574039848;-4767.722191738807;-16.87760474929928;2.200063411009978;5250.0;-5247.79993658899
0.21200000000000016;-10559743573.0;-10528928833.0;85225.0;-4799.993277973522;-4764.847497278378;-30.040148819516617;0.6156062395348272;2916.6666666666665;-2916.0510604271317
0.21600000000000016;-10578943551.0;-10548034058.0;-9531.0;-4799.99429629491;-4779.107919678115;-21.458755971327264;-0.25458034701841825;2250.0;-2250.2545803470184
0.22000000000000017;-10598143537.0;-10567100830.0;-142734.0;-4799.996303218074;-4780.423103898689;-28.134632251541916;-0.5017307910293312;-1000.0;999.4982692089707
0.22400000000000017;-10617343529.0;-10586013794.0;-429752.0;-4799.997920327287;-4711.495076147176;-114.28512989477986;-0.4042773032324476;-500.0;499.59572269676755
0.22800000000000017;-10636543525.0;-10604981689.0;-661845.0;-4799.998749895101;-4747.968209920227;-91.73942269710915;-0.20739195360874874;4000.0;-4000.2073919536087
0.23200000000000018;-10655743522.0;-10624042969.0;-800558.0;-4799.998940088489;-4757.4288331330645;-90.60288662962103;-0.04754834685627429;166.66666666666666;-166.71421501352293
0.23600000000000018;-10674943518.0;-10643269043.0;-774481.0;-4799.998798924379;-4808.518864547983;-37.94881589514989;0.03529102741595125;-1083.3333333333333;1083.3686243607492
0.24000000000000019;-10694143513.0;-10662324829.0;-918691.0;-4799.998578023997;-4785.843741747767;-69.27660125709644;0.05522509559341415;-5000.0;5000.055225095593
0.2440000000000002;-10713343508.0;-10681473999.0;-969517.0;-4799.998408478525;-4782.802397139877;-75.36733502809238;0.04238636802256224;-1750.0;1750.0423863680226
0.2480000000000002;-10732543502.0;-10700727539.0;-915972.0;-4799.998322280114;-4824.11901570385;-30.83781639233439;0.021549602706727455;-1000.0;1000.0215496027067
0.25200000000000017;-10751743496.0;-10719997559.0;-845947.0;-4799.9982995449;-4806.4553069029225;-44.299888392652065;0.005683803465217352;-4500.0;4500.005683803465
0.25600000000000017;-10770943490.0;-10739371948.0;-671552.0;-4799.998307523605;-4853.312693566837;13.021259795872538;-0.0019946762677136576;-2500.0;2499.9980053237323
0.2600000000000002;-10790143485.0;-10758795776.0;-447718.0;-4799.998321161733;-4870.45623499775;43.59485215623954;-0.003409531927900389;-4916.666666666667;4916.663257134739
0.2640000000000002;-10809343479.0;-10778247070.0;-196418.0;-4799.998328261546;-4858.269698752113;46.48630586798845;-0.0017749532617017394;-2833.3333333333335;2833.331558380072
0.2680000000000002;-10828543473.0;-10797643433.0;-50.0;-4799.998326519919;-4848.28403759072;48.282713693917685;0.00043540671867958736;-3416.6666666666665;3416.667102073385
0.2720000000000002;-10847743467.0;-10816990356.0;146879.0;-4799.998318474849;-4826.948486287132;35.76289875767907;0.0020112674974370748;83.33333333333333;-83.33132206583589
0.2760000000000002;-10866943461.0;-10836458130.0;414659.0;-4799.998307592855;-4862.984515112467;87.86573177219816;0.002720498514463543;1666.6666666666667;-1666.6639461681523
0.2800000000000002;-10886143455.0;-10855728149.0;484684.0;-4799.998296374423;-4819.399355472319;48.482081264879525;0.002804607902362477;1000.0;-999.9971953920976
0.2840000000000002;-10905343449.0;-10874998169.0;554710.0;-4799.998285934472;-4822.805897128962;56.09019392023674;0.0026099878596141934;3250.0;-3249.9973900121404
0.2880000000000002;-10924543444.0;-10894185791.0;542338.0;-4799.998276425928;-4808.884199777916;41.42618747715187;0.002377135842834832;3500.0;-3499.997622864157
0.2920000000000002;-10943743437.0;-10913422852.0;579405.0;-4799.9982675412075;-4800.34549316068;35.11151093498847;0.0022211802388483193;2583.3333333333335;-2583.3311121530946
0.2960000000000002;-10962943431.0;-10932687378.0;643937.0;-4799.998258910402;-4810.161106538959;48.799053580030886;0.0021577013740170514;-166.66666666666666;166.66882436804067
0.3000000000000002;-10982143425.0;-10951803589.0;560154.0;-4799.998250300371;-4776.7318939595225;10.342869788169992;0.002152507704522577;416.6666666666667;-416.66451415896216
0.3040000000000002;-11001343419.0;-10971007690.0;564261.0;-4799.998241592814;-4810.6947993697895;44.552203822465344;0.0021768892111140303;2833.3333333333335;-2833.3311564441224
0.3080000000000002;-11020543413.0;-10990184326.0;540903.0;-4799.998232801579;-4811.4027660324355;43.858699134069866;0.002197808726123185;1416.6666666666667;-1416.6644688579406
0.3120000000000002;-11039743407.0;-11009448853.0;605436.0;-4799.998223949176;-4804.527132794783;40.855054636593195;0.002213100970038795;-1583.3333333333333;1583.3355464343033
0.3160000000000002;-11058943401.0;-11028603516.0;560105.0;-4799.998215071957;-4793.595385198303;27.203455855164066;0.002219304633399588;-1250.0;1250.0022193046334
0.32000000000000023;-11078143394.0;-11047752686.0;509281.0;-4799.9982062028175;-4777.674156752698;8.23279627141801;0.002217284873040626;-333.3333333333333;333.33555061820636
0.32400000000000023;-11097343388.0;-11066945801.0;502403.0;-4799.998197345219;-4789.974368809603;20.12033720206273;0.0022143997284729267;2416.6666666666665;-2416.664452266938
0.32800000000000024;-11116543382.0;-11085743408.0;100016.0;-4799.998188504356;-4717.050261082366;-76.94698166058151;0.0022102155980974203;4416.666666666667;-4416.664456451069
0.33200000000000024;-11135743375.0;-11104766235.0;-77151.0;-4799.998179665802;-4754.354168241643;-50.273085650211215;0.0022096385237091454;5916.666666666667;-5916.664457028143
0.33600000000000024;-11154943369.0;-11123794556.0;-248823.0;-4799.998170838212;-4761.497075004205;-53.43049004749628;0.002206897534051677;2916.6666666666665;-2916.6644597691325
0.34000000000000025;-11174143363.0;-11142905273.0;-338100.0;-4799.998162011199;-4756.4416308001955;-63.84254541740302;0.0022067531517677708;-3500.0;3500.0022067531518
0.34400000000000025;-11193343356.0;-11161961060.0;-482307.0;-4799.9981531859175;-4774.022073007249;-54.91451438284639;0.0022063204596634023;-2250.0;2250.0022063204597
0.34800000000000025;-11212543350.0;-11180972900.0;-670460.0;-4799.998144365829;-4761.661053762898;-78.56470480095959;0.0022050221559766214;-666.6666666666666;666.6688716888226
0.35200000000000026;-11231743343.0;-11200072632.0;-770722.0;-4799.998135542856;-4779.359628408074;-66.88184133249251;0.002205743157901452;1833.3333333333333;-1833.3311275901754
0.35600000000000026;-11250943336.0;-11219161377.0;-881970.0;-4799.998126732001;-4781.735620681941;-71.18072023746026;0.0022027138584235217;-1500.0;1500.0022027138584
0.36000000000000026;-11270143330.0;-11238354492.0;-888848.0;-4799.998117921725;-4791.676783981696;-61.652228119544816;0.0022025690213922644;-2333.3333333333335;2333.335535902355
0.36400000000000027;-11289343323.0;-11257662964.0;-780370.0;-4799.998109111447;-4831.149409107633;-15.670914182781416;0.0022025694761396153;-3833.3333333333335;3833.3355359028096
0.36800000000000027;-11308543316.0;-11276971436.0;-671891.0;-4799.99810031098;-4827.30280181586;-13.008772664366916;0.002200116796302609;-5083.333333333333;5083.335533450129
0.3720000000000003;-11327743310.0;-11296318359.0;-524961.0;-4799.998091511089;-4839.583057923369;8.087292249700113;0.002199972641392378;-3083.3333333333335;3083.335533305975
0.3760000000000003;-11346943303.0;-11315555420.0;-487894.0;-4799.998082721009;-4814.948128559843;-14.323608313818113;0.002197519961555372;-1500.0;1500.0021975199616
0.3800000000000003;-11366143296.0;-11334962769.0;-280538.0;-4799.998073929775;-4851.236620739847;34.40625266240022;0.0021978084987495095;500.0;-499.99780219150125
0.3840000000000003;-11385343289.0;-11354386597.0;-56703.0;-4799.998065144313;-4859.075492952861;55.675233665898304;0.0021963655854051467;-2166.6666666666665;2166.668863032252
0.3880000000000003;-11404543283.0;-11373771973.0;128680.0;-4799.998056368083;-4824.1018974613025;31.824626963264564;0.0021940575152257225;-3500.0;3500.002194057515
0.3920000000000003;-11423743276.0;-11393206787.0;363500.0;-4799.998047590122;-4857.029789208747;78.84172749253594;0.002194490207330091;-1000.0;1000.0021944902073
0.3960000000000003;-11442943269.0;-11412548218.0;504938.0;-4799.998038823703;-4842.193309306174;72.49153636707979;0.0021916048353887163;666.6666666666666;-666.6644750618312
0.4000000000000003;-11462143262.0;-11431983032.0;739759.0;-4799.998030053821;-4848.243666851953;92.63116268613703;0.0021924704469711287;1166.6666666666667;-1166.6644741962198
0.4040000000000003;-11481343255.0;-11451137695.0;694429.0;-4799.998021300097;-4794.028933163718;35.696637765730884;0.0021884309262532042;1916.6666666666667;-1916.6644782357405
0.4080000000000003;-11500541155.0;-11470341797.0;698538.0;-4799.474901537241;-4785.420252957479;27.334506322885318;130.77994071409194;3333.3333333333335;-3202.5533926192415
0.4120000000000003;-11519730672.0;-11489578857.0;736435.0;-4797.379080286529;-4813.24194286751;57.63743032826915;523.9553126780265;5000.0;-4476.0446873219735
0.4160000000000003;-11538903583.0;-11508755493.0;718482.0;-4793.227517059631;-4796.942517492309;41.404431178956656;1037.8908067243628;833.3333333333334;204.55747339102948
0.4200000000000003;-11558035471.0;-11527987061.0;767068.0;-4782.971690948068;-4806.845437448047;57.12418691018138;2563.956527890923;583.3333333333334;1980.6231945575896
0.4240000000000003;-11577068228.0;-11547097778.0;721042.0;-4758.188917626251;-4796.775373581298;50.85232576195358;6195.693330454105;750.0;5445.693330454105
0.4280000000000003;-11595948165.0;-11566098633.0;629072.0;-4719.9840154476215;-4739.014246131674;3.552764843566365;9551.225544657427;2416.6666666666665;7134.558877990761
0.43200000000000033;-11614529187.0;-11584830322.0;388014.0;-4645.255336131853;-4681.089521302812;-38.81612112372204;18682.169828942053;7166.666666666667;11515.503162275385
0.43600000000000033;-11632777893.0;-11603490601.0;285976.0;-4562.176250986417;-4649.241277114168;-24.17928146892882;20769.771286359173;8583.333333333334;12186.43795302584
0.44000000000000034;-11650552270.0;-11621958618.0;302977.0;-4443.594122888744;-4604.64805709432;10.073036756590227;29645.532024418117;11500.0;18145.532024418117
0.44400000000000034;-11667715688.0;-11639954224.0;235994.0;-4290.854363505453;-4499.047365996428;-2.44007555958342;38184.93984582278;13083.333333333334;25101.60651248945
0.44800000000000034;-11684121123.0;-11657422485.0;169335.0;-4101.3583929825645;-4370.054092763759;-3.51581924493712;47373.99263072212;21000.0;26373.992630722114
0.45200000000000035;-11699613708.0;-11674022827.0;-96793.0;-3873.146134355915;-4158.610053587296;-63.814658007958315;57053.0646566624;31833.333333333332;25219.73132332907
0.45600000000000035;-11714050117.0;-11690035400.0;-132165.0;-3609.1020751984897;-3997.114507618949;-22.801518586929433;66011.0147893563;39916.666666666664;26094.348122689633
0.46000000000000035;-11727319916.0;-11705136108.0;-110634.0;-3317.4496473629574;-3769.4084889454393;-7.023522845872776;72913.10695888307;44750.0;28163.106958883076
0.46400000000000036;-11739330670.0;-11719341431.0;114634.0;-3002.688411507873;-3537.511248945944;49.37571115591982;78690.30896377114;49583.333333333336;29106.97563043781
0.46800000000000036;-11750010588.0;-11732321777.0;317537.0;-2669.9792769606397;-3219.3702739036235;44.06185746846404;83177.28363680828;56000.0;27177.283636808283
0.47200000000000036;-11759334570.0;-11744132080.0;637365.0;-2330.9952892124943;-2928.582587392837;94.20574503630132;84745.99693703635;66750.0;17995.996937036354
