Zeit[sec];Sollposition[°];Istposition[°];Positionsschleppfehler[°];Sollgeschwindigkeit[°/s];Istgeschwindigkeit[°/s];Geschwindigkeitsdifferenz[°/s];Sollbeschleunigung[°/s*s];Istbeschleunigung[°/s*s];Beschleunigungsdifferenz[°/s*s]
0.0;-9979199999.0;-9979200439.0;440.0;0.0;0.7413661245852708;-0.7149661245605161;0.0;-166.66666666666666;166.66666666666666
0.004;-9979199999.0;-9979205933.0;5934.0;0.0;-1.8379735443145038;2.194013544331067;0.0;83.33333333333333;-83.33333333333333
0.008;-9979199999.0;-9979200439.0;440.0;0.0;0.033217920377850534;-0.006817920353095756;0.0;0.0;0.0
0.012;-9979199999.0;-9979205933.0;5934.0;0.0;-2.6794753049835562;3.035515305000119;0.0;83.33333333333333;-83.33333333333333
0.016;-9979199999.0;-9979200439.0;440.0;0.0;2.551800708591938;-2.5254007085671835;0.0;0.0;0.0
0.02;-9979199999.0;-9979200439.0;440.0;0.0;1.5341264176219702;-1.5077264175972154;0.0;0.0;0.0
0.024;-9979199999.0;-9979200439.0;440.0;0.0;0.019928665190935134;0.006471334833819644;0.0;0.0;0.0
0.028;-9979199999.0;-9979200439.0;440.0;0.0;-1.3884850865229965;1.4148850865477514;0.0;83.33333333333333;-83.33333333333333
0.032;-9979199999.0;-9979194946.0;-5053.0;0.0;3.1600057118311526;-3.4631857118837672;0.0;0.0;0.0
0.036000000000000004;-9979199999.0;-9979194946.0;-5053.0;0.0;3.0575287436693905;-3.3607087437220056;0.0;0.0;0.0
0.04000000000000001;-9979199999.0;-9979194946.0;-5053.0;8.656197209923802e-10;1.829152731589973;-2.1323327316425877;2.1640493024809505e-07;-83.33333333333333;83.33333354973826
0.04400000000000001;-9979199999.0;-9979200439.0;440.0;5.770798139949201e-10;2.5180126562938097;-2.49161265592585;-7.213497674936503e-08;-83.33333333333333;83.33333326119835
0.048000000000000015;-9979304844.0;-9979205933.0;5934.0;-26.211119570416923;-4.4501964260041715;4.806236426766881;-6552.779892748501;166.66666666666666;-6719.446559415167
0.05200000000000002;-9979400799.0;-9979205933.0;-35635.0;-23.98875931488247;-1.3712897502407433;-11.159109610345517;555.5900638836135;-166.66666666666666;722.2567305502802
0.05600000000000002;-9979520783.0;-9979227905.0;-114369.0;-29.99587554289607;-6.0264625731781125;-26.01208510157905;-1501.7790570034;0.0;-1501.7790570034
0.060000000000000026;-9979650036.0;-9979277344.0;-170464.0;-32.313482272061854;-12.636204235889018;-23.97514444426281;-579.4016822914463;-916.6666666666666;337.26498437522037
0.06400000000000003;-9979782551.0;-9979304810.0;-266517.0;-33.128628146569454;-9.336873836800457;-37.53371861492854;-203.7864686269;-583.3333333333334;379.5468647064334
0.06800000000000003;-9979919121.0;-9979370728.0;-331091.0;-34.142554507920835;-17.582014612667262;-34.90654053506201;-253.48159033784512;-916.6666666666666;663.1850763288215
0.07200000000000004;-9980056779.0;-9979442139.0;-393783.0;-34.4145464922665;-19.197435180842877;-37.95540268004052;-67.99799608641699;-666.6666666666666;598.6686705802497
0.07600000000000004;-9980185337.0;-9979519043.0;-453857.0;-32.13949414651383;-19.17154443309456;-42.304329671932166;568.7630864381674;-750.0;1318.7630864381674
0.08000000000000004;-9980295989.0;-9979612427.0;-494517.0;-27.662816635513764;-20.597477872528135;-42.58447220930201;1119.1693777500172;-916.6666666666666;2035.836044416684
0.08400000000000005;-9980380268.0;-9979705811.0;-522644.0;-21.069784115984344;-23.807385076701642;-37.929146769526724;1648.258129882355;-333.3333333333333;1981.5914632156882
0.08800000000000005;-9980422848.0;-9979799194.0;-529562.0;-10.645014053891156;-20.058484282225372;-36.79024850772156;2606.192515523297;-583.3333333333334;3189.5258488566305
0.09200000000000005;-9980413858.0;-9979854126.0;-542530.0;2.247422516482133;-13.796106968335808;-35.73084975500813;3223.1091425933223;583.3333333333334;2639.775809259989
0.09600000000000006;-9980357391.0;-9979876099.0;-542934.0;14.116722684310291;-6.6226279770806435;-31.547859058078433;2967.3250419570395;1000.0;1967.3250419570395
0.10000000000000006;-9980263644.0;-9979898071.0;-493450.0;23.436787045576775;-6.031526084028185;-16.69760096130849;2330.016090316621;1666.6666666666667;663.3494236499542
0.10400000000000006;-9980143982.0;-9979898071.0;-422481.0;29.915482776761248;-1.541547380745411;-6.064876722454366;1619.6739327961182;1166.6666666666667;453.0072661294515
0.10800000000000007;-9980009533.0;-9979898071.0;-318677.0;33.61237649946157;-0.6175803496614098;7.447839270897912;924.2234306750801;750.0;174.22343067508007
0.11200000000000007;-9979869032.0;-9979892578.0;-198797.0;35.125268299704246;0.47442894693464044;18.94103331924259;378.2229500606693;500.0;-121.7770499393307
0.11600000000000008;-9979727540.0;-9979865112.0;-89501.0;35.37295929352002;7.562035787716508;21.258457184885916;61.9227484539433;333.3333333333333;-271.41058487939
0.12000000000000008;-9979591482.0;-9979865112.0;51357.0;34.01442063281158;1.2190343474522234;37.07699496065284;-339.63466517711004;250.0;-589.63466517711
0.12400000000000008;-9979472948.0;-9979837646.0;163223.0;29.633422034818114;7.299348611220718;37.32690001612148;-1095.2496494983661;166.66666666666666;-1261.9163161650329
0.12800000000000009;-9979381032.0;-9979782715.0;237434.0;22.979159147195585;13.670540196225048;32.86088313305975;-1663.5657219056322;583.3333333333334;-2246.8990552389655
0.1320000000000001;-9979316669.0;-9979766235.0;329037.0;16.090763778781746;6.324473083943129;40.438527602515464;-1722.0988421034597;500.0;-2222.09884210346
0.1360000000000001;-9979277557.0;-9979744263.0;388212.0;9.777861148114575;0.12086538314819337;43.45886245333902;-1578.2256576667928;416.6666666666667;-1994.8923243334596
0.1400000000000001;-9979259266.0;-9979727783.0;426245.0;4.572736459052544;5.079748000495136;34.12311021597563;-1301.2811722655076;-666.6666666666666;-634.6145055988409
0.1440000000000001;-9979254891.0;-9979711304.0;440771.0;1.0939348384964689;6.585976325444877;27.611383877441128;-869.7004051390188;-500.0;-369.70040513901887
0.1480000000000001;-9979257416.0;-9979705811.0;448173.0;-0.6312780152978688;0.8896271760687232;29.22469757427448;-431.3032134485844;-333.3333333333333;-97.9698801152511
0.1520000000000001;-9979261740.0;-9979694824.0;438906.0;-1.0811373053301057;2.211727817170322;24.552930684435147;-112.46482250805923;0.0;-112.46482250805923
0.1560000000000001;-9979265215.0;-9979683838.0;424722.0;-0.8687073357541364;4.455818310633302;20.227970163703105;53.10749239399232;-166.66666666666666;219.77415906065897
0.16000000000000011;-9979267106.0;-9979667358.0;404266.0;-0.47262291945131557;5.262563200049103;17.99912055259327;99.02110407570521;-83.33333333333333;182.35443740903852
0.16400000000000012;-9979267708.0;-9979639893.0;373949.0;-0.1505304523355583;8.813963335625827;12.910065904071962;80.52311677893931;250.0;-169.4768832210607
0.16800000000000012;-9979267617.0;-9979612427.0;345093.0;0.022589549542168432;7.3955215742886065;12.96281932971428;43.280000469431684;500.0;-456.7199995305683
0.17200000000000013;-9979267326.0;-9979579468.0;311800.0;0.07285594708688096;9.680713819473983;8.943507843394844;12.566599386178133;333.3333333333333;-320.76673394715516
0.17600000000000013;-9979267098.0;-9979530029.0;262528.0;0.05696672612943433;14.145532538801431;1.6476524770278544;-3.97230523936166;500.0;-503.9723052393617
0.18000000000000013;-9979267009.0;-9979486084.0;218848.0;0.02231315514547622;15.551330140553414;-2.354188550973902;-8.663392745989526;250.0;-258.66339274598954
0.18400000000000014;-9979267031.0;-9979442139.0;175076.0;-0.005470193802360364;11.487668352164329;-0.9397881245890041;-6.945837236959146;416.6666666666667;-423.61250390362585
0.18800000000000014;-9979267107.0;-9979392700.0;125682.0;-0.019167475766995488;13.198044905327261;-5.645624365764347;-3.424320491158781;166.66666666666666;-170.09098715782542
0.19200000000000014;-9979267194.0;-9979370728.0;103667.0;-0.02158380560906106;5.287425061769784;0.9218567791477748;-0.6040824605163929;-83.33333333333333;82.72925087281693
0.19600000000000015;-9979267267.0;-9979332275.0;65134.0;-0.01834934827199535;7.1316347950622445;-3.243640050372091;0.808614334266427;-416.6666666666667;417.47528100093314
0.20000000000000015;-9979267323.0;-9979304810.0;37588.0;-0.01397818422029436;8.068798674188555;-5.833805909812169;1.0927910129252478;-500.0;501.09279101292526
0.20400000000000015;-9979267366.0;-9979288330.0;21041.0;-0.010748574065126304;4.912371087856591;-3.666546289796106;0.8074025387920141;-333.3333333333333;334.14073587212533
0.20800000000000016;-9979267402.0;-9979271851.0;4511.0;-0.009139573977661202;6.033987108521163;-5.776050415037282;0.40225002186627556;-333.3333333333333;333.7355833551996
0.21200000000000016;-9979267437.0;-9979266357.0;-1023.0;-0.008715106671496031;4.231171682134271;-4.302681236373751;0.10611682654129273;-333.3333333333333;333.4394501598746
0.21600000000000016;-9979267473.0;-9979277344.0;9928.0;-0.008839206531336012;-3.086733670555055;3.6734329635281013;-0.03102496495999531;-416.6666666666667;416.6356417017067
0.22000000000000017;-9979267509.0;-9979288330.0;20879.0;-0.009042695549727179;-5.948227371051908;7.192200573606833;-0.050872254597791614;-333.3333333333333;333.28246107873554
0.22400000000000017;-9979267545.0;-9979293823.0;26336.0;-0.009106034675951632;-6.305677892066538;7.8769187325028005;-0.01583478155611339;-250.0;249.98416521844388
0.22800000000000017;-9979267581.0;-9979321289.0;53766.0;-0.008995483784524534;-7.736377152696252;10.953270536515644;0.0276377228567745;-416.6666666666667;416.69430438952344
0.23200000000000018;-9979267616.0;-9979332275.0;64716.0;-0.00876510198118148;-4.0964024649783966;7.970300633205225;0.05759545083576338;-333.3333333333333;333.3909287841691
0.23600000000000018;-9979267650.0;-9979348755.0;81160.0;-0.008483166464115286;-3.9781402216628194;8.838835432881247;0.07048387926654855;-166.66666666666666;166.73715054593322
0.24000000000000019;-9979267683.0;-9979381714.0;114085.0;-0.008197073375529164;-6.005621333345771;12.842066664508272;0.07152327214653056;-83.33333333333333;83.40485660547986
0.2440000000000002;-9979267715.0;-9979409180.0;141517.0;-0.007927377144237987;-7.004926997356117;15.48757561040018;0.06742405782279426;-83.33333333333333;83.40075739115612
0.2480000000000002;-9979267745.0;-9979420166.0;152471.0;-0.007675853733369324;-3.027563181437552;12.167731362165185;0.06288085271716573;-166.66666666666666;166.72954751938383
0.25200000000000017;-9979267775.0;-9979442139.0;174412.0;-0.007436054564541689;-5.351693437024951;15.808584204665515;0.05994979220690891;250.0;-249.9400502077931
0.25600000000000017;-9979267804.0;-9979447632.0;179875.0;-0.007200745365206841;-1.3071475862711668;12.09206533533792;0.058827299833711905;166.66666666666666;-166.60783936683293
0.2600000000000002;-9979267832.0;-9979475098.0;207312.0;-0.006965201871467512;-5.782125442586839;18.213501279398237;0.05888587343483233;83.33333333333333;-83.2744474598985
0.2640000000000002;-9979267859.0;-9979491577.0;223762.0;-0.006727550016627753;-4.985876660384238;18.40448792554086;0.059412963709939766;-83.33333333333333;83.39274629704327
0.2680000000000002;-9979267885.0;-9979513550.0;245707.0;-0.0064877941287861665;-5.722710556954145;20.458258200221323;0.05993897196039655;0.0;0.05993897196039655
0.2720000000000002;-9979267910.0;-9979502563.0;234694.0;-0.006246689316879368;6.183419360615313;7.891586756377916;0.06027620297669963;83.33333333333333;-83.27305713035663
0.2760000000000002;-9979267934.0;-9979513550.0;245655.0;-0.006005001654360434;2.438174895122647;12.29473150026596;0.060421915629733446;333.3333333333333;-333.2729114177036
0.2800000000000002;-9979267957.0;-9979519043.0;251124.0;-0.005763203769597028;-1.3782437988445162;16.43953152221644;0.06044947119085149;333.3333333333333;-333.27288386214246
0.2840000000000002;-9979267979.0;-9979491577.0;223634.0;-0.005521466189674184;5.213191655777395;8.198937795564257;0.06043439498071095;500.0;-499.9395656050193
0.2880000000000002;-9979268000.0;-9979447632.0;179666.0;-0.005279774776136459;11.539639131300152;-0.7653479067184712;0.060422853384431346;666.6666666666666;-666.6062438132822
0.2920000000000002;-9979268020.0;-9979398193.0;130206.0;-0.005038048449269988;11.62332450850308;-3.816391564267284;0.060431581716617694;916.6666666666666;-916.60623508495
0.2960000000000002;-9979268039.0;-9979359741.0;91733.0;-0.004796210168919603;10.176668798744679;-4.677874148887977;0.06045957008759639;583.3333333333334;-583.2728737632458
0.3000000000000002;-9979268058.0;-9979332275.0;64248.0;-0.004554216942639158;6.12941493138671;-2.279478511080517;0.06049830657011107;0.0;0.06049830657011107
0.3040000000000002;-9979268075.0;-9979299316.0;31270.0;-0.004312058382992005;5.9647966913804416;-4.093298372084966;0.06053963991178835;-250.0;250.06053963991178
0.3080000000000002;-9979268091.0;-9979255371.0;-12694.0;-0.004069741992015724;10.126935345485807;-10.893034968197064;0.060579097744070276;-83.33333333333333;83.3939124310774
0.3120000000000002;-9979268106.0;-9979233398.0;-34683.0;-0.003827279599846502;4.586074595659971;-6.671271998234852;0.06061559804230543;0.0;0.06061559804230543
0.3160000000000002;-9979268121.0;-9979189453.0;-78644.0;-0.0035846856334796904;7.630484341308475;-12.353099370525388;0.06064849159170295;83.33333333333333;-83.27268484174162
0.32000000000000023;-9979268134.0;-9979167480.0;-100632.0;-0.003341965575173519;3.958775362506509;-10.000427878068104;0.0606800145765428;-166.66666666666666;166.7273466812432
0.32400000000000023;-9979268147.0;-9979134521.0;-133605.0;-0.003099124907186224;7.443538484737277;-15.463328357191006;0.060710166996823765;-166.66666666666666;166.72737683366347
0.32800000000000024;-9979268158.0;-9979118042.0;-150097.0;-0.0028561670919966878;3.6184588782191276;-12.627525983553571;0.06073945379738409;-250.0;250.0607394537974
0.33200000000000024;-9979268168.0;-9979096069.0;-172082.0;-0.002613094437924167;5.218788536220789;-15.546712754967334;0.06076816351813024;-250.0;250.06076816351813
0.33600000000000024;-9979268178.0;-9979057617.0;-210545.0;-0.0023699092532879166;13.593264691412449;-26.228725907636488;0.060796296159062554;-83.33333333333333;83.3941296294924
0.34000000000000025;-9979268186.0;-9979057617.0;-210555.0;-0.0021266152891067282;3.1914296667948365;-15.827247766396457;0.060823491045297086;-83.33333333333333;83.39415682437863
0.34400000000000025;-9979268194.0;-9979068604.0;-199577.0;-0.0018832162963993925;-5.105885886929929;-6.871008984939538;0.06084974817683394;-333.3333333333333;333.39418308151016
0.34800000000000025;-9979268200.0;-9979057617.0;-210572.0;-0.001639715449104887;0.334027703769505;-12.970379240677937;0.06087521182362635;-416.6666666666667;416.7275418784903
0.35200000000000026;-9979268206.0;-9979057617.0;-210579.0;-0.0013961156326222812;1.7707254194021225;-14.40725351757381;0.06089995412065147;-416.6666666666667;416.72756662078734
0.35600000000000026;-9979268211.0;-9979074097.0;-194105.0;-0.0011524220406699016;-3.193009057275951;-8.45483550143809;0.0609233979880949;-83.33333333333333;83.39425673132142
0.36000000000000026;-9979268214.0;-9979107056.0;-161152.0;-0.0009086384242665385;-7.038975666046142;-2.6314452562590267;0.06094590410084079;-500.0;500.06094590410083
0.36400000000000027;-9979268217.0;-9979134521.0;-133691.0;-0.0006647662261117272;-10.581956896349787;2.559439702747742;0.060968049538702815;-416.6666666666667;416.7276347162054
0.36800000000000027;-9979268219.0;-9979156494.0;-111721.0;-0.00042081208262332876;-7.5430002282783395;0.838926853020844;0.06098853587209962;-500.0;500.0609885358721
0.3720000000000003;-9979268219.0;-9979189453.0;-78765.0;-0.00017677743650087787;-10.895462811917067;6.168993340910081;0.06100866153061272;0.0;0.06100866153061272
0.3760000000000003;-9979268219.0;-9979233398.0;-34821.0;6.733338415702028e-05;-9.075017497606575;6.985432012038176;0.06102770516447454;-500.0;500.06102770516446
0.3800000000000003;-9979268218.0;-9979271851.0;3632.0;0.0003115166283315748;-8.15327388060838;8.371112459371387;0.061045811043638626;-166.66666666666666;166.7277124777103
0.3840000000000003;-9979268082.0;-9979304810.0;36592.0;0.034000215357008506;-8.954147612586617;11.149830330524086;8.422174682169233;-83.33333333333333;91.75550801550256
0.3880000000000003;-9979267461.0;-9979332275.0;64112.0;0.15525090288941684;-6.471870568782092;10.332257697332874;30.312671883102084;250.0;-219.6873281168979
0.3920000000000003;-9979266070.0;-9979354248.0;86412.0;0.34772908463779106;-7.808692087180913;13.075288910921481;48.11954543709356;416.6666666666667;-368.5471212295731
0.3960000000000003;-9979260067.0;-9979365234.0;98322.0;1.500658543220481;-4.017451081931591;10.147626123174728;288.23236464567253;166.66666666666666;121.56569797900585
0.4000000000000003;-9979199999.0;-9979359741.0;96044.0;15.016940015125828;1.383163764230907;5.183196034415845;3379.0703679763365;583.3333333333334;2795.7370346430034
0.4040000000000003;-9979199999.0;-9979365234.0;128949.0;0.0;2.4793361604735256;12.110501348475943;-3754.2350037814567;250.0;-4004.2350037814567
0.4080000000000003;-9979130101.0;-9979370728.0;170378.0;17.474611359354437;-0.5660099126249551;19.77245088970952;4368.652839838609;416.6666666666667;3951.9861731719425
0.4120000000000003;-9979041636.0;-9979332275.0;159990.0;22.11630460021575;10.016750532284378;6.599049713809615;1160.4233102153278;416.6666666666667;743.7566435486611
0.4160000000000003;-9978934961.0;-9979310303.0;214868.0;26.668796078250622;10.503832650952042;21.600827251123036;1138.1228695087184;500.0;638.1228695087184
0.4200000000000003;-9978815894.0;-9979249878.0;250020.0;29.766782995008164;16.37610596527159;22.51919295200632;774.4967291893854;916.6666666666666;-142.16993747728122
0.4240000000000003;-9978690510.0;-9979156494.0;268117.0;31.34589002350093;22.94139008269459;21.016054647300486;394.77675712319194;1333.3333333333333;-938.5565762101413
0.4280000000000003;-9978563255.0;-9979074097.0;307219.0;31.813829848217445;18.000220209911465;30.80764178120069;116.98495617912829;1500.0;-1383.0150438208716
0.43200000000000033;-9978440277.0;-9978947754.0;306965.0;30.744525362783914;29.524108108729124;20.41596016346886;-267.32612135838264;1166.6666666666667;-1433.9927880250493
0.43600000000000033;-9978332406.0;-9978843384.0;328143.0;26.96767018340175;31.402227457359434;19.673478035391927;-944.2137948455409;416.6666666666667;-1360.8804615122076
0.44000000000000034;-9978247644.0;-9978717041.0;318813.0;21.19047298659822;28.530842953018844;19.85126380048646;-1444.2992992008828;833.3333333333334;-2277.632632534216
0.44400000000000034;-9978186803.0;-9978596191.0;296761.0;15.210344221847647;27.711294043689968;14.793597730673696;-1495.032191187643;416.6666666666667;-1911.6988578543098
0.44800000000000034;-9978147684.0;-9978497314.0;273297.0;9.77964577147891;25.42139713624865;9.829718999501964;-1357.6746125921843;83.33333333333333;-1441.0079459255178
0.45200000000000035;-9978126277.0;-9978453369.0;281721.0;5.351667811885267;15.211845895811916;14.783611062058934;-1106.9944898984106;-1500.0;393.00551010158944
0.45600000000000035;-9978116695.0;-9978409424.0;269999.0;2.395669456491676;9.942196326598525;14.313585869749;-738.9995888483979;-1416.6666666666667;677.6670778182688
0.46000000000000035;-9978113138.0;-9978376465.0;253863.0;0.8892288040783513;6.946246419198811;12.491139415553342;-376.61016310333116;-1500.0;1123.3898368966688
0.46400000000000036;-9978111485.0;-9978354492.0;239152.0;0.413282658564662;7.021001483097673;9.143828095673506;-118.98653637842231;-833.3333333333334;714.346796954911
0.46800000000000036;-9978112722.0;-9978348999.0;236496.0;-0.3093256905722406;3.637314252771437;11.261796142111264;-180.65208728422564;-833.3333333333334;652.6812460491077
0.47200000000000036;-9978124296.0;-9978343506.0;231521.0;-2.8936008840608016;1.7251252283006906;12.29570325752959;-646.0687983721402;-500.0;-146.06879837214026
0.47600000000000037;-9978152839.0;-9978338013.0;220709.0;-7.1357431021719515;-1.5795684061646462;13.492392013951127;-1060.5355545277876;-250.0;-810.5355545277874
0.48000000000000037;-9978201256.0;-9978316040.0;180495.0;-12.104168922536571;2.801623380035162;3.4676748673698587;-1242.1064550911549;0.0;-1242.1064550911549
