Zeit[sec];Sollposition[°];Istposition[°];Positionsschleppfehler[°];Sollgeschwindigkeit[°/s];Istgeschwindigkeit[°/s];Geschwindigkeitsdifferenz[°/s];Sollbeschleunigung[°/s*s];Istbeschleunigung[°/s*s];Beschleunigungsdifferenz[°/s*s]
0.0;9817499999.0;9817498169.0;1830.0;0.0;-0.2535286201760173;0.363328620187662;0.0;0.0;0.0
0.004;9817499999.0;9817498169.0;1830.0;0.0;-0.03567436425387859;0.14547436426552326;0.0;0.0;0.0
0.008;9817499999.0;9817498169.0;1830.0;0.0;-1.824807247310877;1.9346072473225215;0.0;0.0;0.0
0.012;9817499999.0;9817498169.0;1830.0;0.0;-0.10864237908273935;0.21844237909438402;0.0;0.0;0.0
0.016;9817499999.0;9817503662.0;-3663.0;0.0;1.54706675234437;-1.766846752394706;0.0;0.0;0.0
0.02;9817499999.0;9817503662.0;-3663.0;0.0;1.762242382876575;-1.982022382926911;0.0;0.0;0.0
0.024;9817499999.0;9817498169.0;1830.0;0.0;0.9049886357188225;-0.7951886357071778;0.0;0.0;0.0
0.028;9817499999.0;9817503662.0;-3663.0;0.0;0.3532988690212369;-0.573078869071573;0.0;83.33333333333333;-83.33333333333333
0.032;9817499999.0;9817503662.0;-3663.0;0.0;2.1279143546372654;-2.3476943546876017;0.0;0.0;0.0
0.036000000000000004;9817499349.0;9817498169.0;1830.0;-0.16260224595373868;-0.5479756290987134;0.6577756291103581;-40.65056148843467;0.0;-40.65056148843467
0.04000000000000001;9817492867.0;9817498169.0;1571.0;-1.620440794848132;-0.22750642160326243;0.2572971717356442;-364.45963722359835;-83.33333333333333;-281.12630389026504
0.04400000000000001;9817401555.0;9817498169.0;-1387.0;-22.828169488103804;-0.4979988874644041;-0.3248808169010181;-5301.932173313918;0.0;-5301.932173313918
0.048000000000000015;9817206097.0;9817498169.0;-41469.0;-48.864480510569535;-0.1498324474617839;-12.35873938080519;-6509.077755616433;0.0;-6509.077755616433
0.05200000000000002;9816802037.0;9817448730.0;-124137.0;-101.01487174989173;-9.58278421677649;-30.89233173916716;-13037.597809830548;-500.0;-12537.597809830548
0.05600000000000002;9816094977.0;9817234497.0;-187459.0;-176.76510631573143;-57.58368245686591;-23.05259682027789;-18937.558641459927;-2416.6666666666665;-16520.89197479326
0.060000000000000026;9814946364.0;9816696167.0;-172102.0;-287.15313970604956;-141.07897811433673;0.009770655178130028;-27597.008347579533;-7583.333333333333;-20013.6750142462
0.06400000000000003;9813177155.0;9815844727.0;-201015.0;-442.3022751158393;-219.96579161710292;-12.183496094146506;-38787.28385244743;-14083.333333333334;-24703.950519114096
0.06800000000000003;9810604682.0;9814476929.0;-225300.0;-643.1182767550423;-357.8168403875828;-3.72170242004853;-50204.000409800756;-20083.333333333332;-30120.667076467424
0.07200000000000004;9807051809.0;9812493896.0;-326321.0;-888.2180275702444;-502.0408199765161;-38.55204507403903;-61274.93770380053;-27833.333333333332;-33441.6043704672
0.07600000000000004;9802352285.0;9809692383.0;-481288.0;-1174.8811637877739;-716.8528420118764;-51.14427999822908;-71665.78405438235;-34666.666666666664;-36999.11738771569
0.08000000000000004;9796352175.0;9805847168.0;-637830.0;-1500.027383015589;-969.4110001799539;-69.29815043657015;-81286.5548069538;-47083.333333333336;-34203.22147362047
0.08400000000000005;9788924462.0;9800815430.0;-814560.0;-1856.928201669349;-1287.8161271007211;-63.17436538748939;-89225.20466343997;-56250.0;-32975.20466343997
0.08800000000000005;9779990783.0;9794349976.0;-907617.0;-2233.4196425753066;-1622.7798175440803;-71.30502986424358;-94122.86022648943;-71750.0;-22372.86022648942
0.09200000000000005;9769523252.0;9786544189.0;-1118270.0;-2616.882436512058;-1991.5028892427088;-79.70327033278659;-95865.69848418787;-78000.0;-17865.698484187873
0.09600000000000006;9757545456.0;9776947632.0;-1054717.0;-2994.4489871535457;-2387.090746599302;-59.44291762926423;-94391.63766037188;-91916.66666666667;-2474.970993705213
0.10000000000000006;9744136857.0;9766109619.0;-1274044.0;-3352.149600551877;-2759.7244264557958;-81.05303560004404;-89425.15334958285;-90166.66666666667;741.513317083829
0.10400000000000006;9729423603.0;9753425903.0;-1126566.0;-3678.31325655522;-3153.3532325368524;-48.300114749369186;-81540.91400083575;-100333.33333333333;18792.41933249757
0.10800000000000007;9713564006.0;9739692993.0;-1311146.0;-3964.8992012513995;-3461.53501960706;-96.5062322113863;-71646.48617404487;-90583.33333333333;18936.84715928846
0.11200000000000007;9696736178.0;9724361572.0;-1139842.0;-4206.956593496573;-3840.267740402073;-18.1517701479479;-60514.34806129339;-92250.0;31735.65193870661
0.11600000000000008;9679127882.0;9708250122.0;-1265160.0;-4402.073965136364;-4031.423287537709;-103.6782730724085;-48779.34290994767;-81166.66666666667;32387.323756719
0.12000000000000008;9660922537.0;9690946655.0;-1093292.0;-4551.336032807809;-4339.230590313703;-9.266207296464017;-37315.516917861256;-73083.33333333333;35767.81641547207
0.12400000000000008;9642285094.0;9673231201.0;-1218281.0;-4659.36036043906;-4417.728818913735;-115.47881798501567;-27006.08190781281;-63833.333333333336;36827.251425520524
0.12800000000000009;9623358853.0;9654719238.0;-1079485.0;-4731.5602012777135;-4640.3873109233455;-17.673197482332398;-18049.960209663368;-46666.666666666664;28616.706457003296
0.1320000000000001;9604260731.0;9635932617.0;-1042279.0;-4774.530162854274;-4672.055630527481;-77.83462363686249;-10742.490394140077;-44083.333333333336;33340.84293919326
0.1360000000000001;9585074172.0;9616761475.0;-863834.0;-4796.639515732383;-4799.308556239143;-0.6955574557123327;-5527.338219527337;-26416.666666666668;20889.32844713933
0.1400000000000001;9565852328.0;9597573853.0;-808391.0;-4805.460696482048;-4789.637403375313;-41.91045531798136;-2205.295187416141;-25166.666666666668;22961.371479250527
0.1440000000000001;9546625096.0;9578254395.0;-688964.0;-4806.807921301201;-4835.828555639245;-5.516713439995328;-336.80620478821766;-8833.333333333334;8496.527128545116
0.1480000000000001;9527405220.0;9559000854.0;-659196.0;-4804.968777730847;-4822.851656522252;-22.643266944242896;459.7858925883429;-8166.666666666667;8626.452559255009
0.1520000000000001;9508194919.0;9539780273.0;-662899.0;-4802.575062144999;-4787.52603208159;-58.31874363508814;598.4288964621101;-1000.0;1598.42889646211
0.1560000000000001;9488991658.0;9520504761.0;-603510.0;-4800.814926045845;-4818.598875057898;-21.642208076810675;440.0340247884742;83.33333333333333;356.7006914551409
0.16000000000000011;9469791983.0;9501278687.0;-585002.0;-4799.91840407174;-4807.650548423335;-29.340792937775404;224.13049352621783;500.0;-275.86950647378217
0.16400000000000012;9450593333.0;9481981201.0;-489396.0;-4799.662487923984;-4823.061557499356;-6.771984889413034;63.97903693891749;916.6666666666666;-852.6876297277491
0.16800000000000012;9431394416.0;9462771606.0;-479091.0;-4799.7288515501095;-4819.661966091036;-8.905684285315147;-16.590906531291694;-416.6666666666667;400.075760135375
0.17200000000000013;9412194899.0;9443507080.0;-413327.0;-4799.879177980735;-4800.118615252815;-24.37130432068443;-37.5816076564206;-750.0;712.4183923435794
0.17600000000000013;9392994920.0;9424275513.0;-380913.0;-4799.9944834716225;-4813.251528311796;-9.391316469878802;-28.826372721823645;1000.0;-1028.8263727218236
0.18000000000000013;9373794735.0;9405093384.0;-398481.0;-4800.045944743038;-4792.328020626746;-31.504853360583184;-12.8653178537661;-333.3333333333333;320.4680154795672
0.18400000000000014;9354594536.0;9385746460.0;-251614.0;-4800.04958547007;-4837.51384292122;22.40279147767069;-0.9101817581722571;1416.6666666666667;-1417.576848424839
0.18800000000000014;9335394408.0;9366432495.0;-137839.0;-4800.031739872337;-4843.540066964343;35.22264026075845;4.461399433239421;-2333.3333333333335;2337.794732766573
0.19200000000000014;9316194360.0;9347124023.0;-29537.0;-4800.011886898747;-4820.326874644607;18.51216600760381;4.963243397469341;-2250.0;2254.9632433974693
0.19600000000000015;9296994363.0;9327815552.0;78837.0;-4799.998832780066;-4837.874496325106;42.58074328259863;3.2635296704484063;-583.3333333333334;586.5968630037818
0.20000000000000015;9277794388.0;9308644409.0;49952.0;-4799.99353726299;-4777.375963276498;-19.633744194361498;1.323879268966266;-83.33333333333333;84.6572126022996
0.20400000000000015;9258594414.0;9289308472.0;185900.0;-4799.993391627731;-4833.631545961708;44.78873628243309;0.03640881459432421;3166.6666666666665;-3166.630257852072
0.20800000000000016;9239394431.0;9270137329.0;157068.0;-4799.9953570807775;-4801.971343609102;11.401913059756225;-0.4913632615171082;0.0;-0.4913632615171082
0.21200000000000016;9220194441.0;9250872803.0;221617.0;-4799.9974004571795;-4811.904500047006;25.207348294482472;-0.5108441005177156;2083.3333333333335;-2083.844177433851
0.21600000000000016;9200994445.0;9231712646.0;181788.0;-4799.998680366122;-4790.161218381055;1.0723426498361732;-0.31997723567656067;-250.0;249.68002276432344
0.22000000000000017;9181794448.0;9212552490.0;141952.0;-4799.999158361283;-4773.211372227028;-18.269403721137678;-0.11949879012718156;1333.3333333333333;-1333.4528321234604
0.22400000000000017;9162594450.0;9193381348.0;113097.0;-4799.999131155427;-4796.761416323245;3.5483739390147093;0.006801463996453094;1916.6666666666667;-1916.6598652026703
0.22800000000000017;9143394454.0;9174358521.0;-64073.0;-4799.998913472237;-4759.831881932139;-44.0116428416959;0.054420797368948115;2000.0;-1999.945579202631
0.23200000000000018;9124194458.0;9155187378.0;-92927.0;-4799.998704599919;-4798.021149596654;-7.553515410157161;0.05221807964517211;2666.6666666666665;-2666.6144485870213
0.23600000000000018;9104994463.0;9136109619.0;-215164.0;-4799.998580213621;-4777.0957697841;-35.81290214904675;0.031096574502953445;-83.33333333333333;83.36442990783628
0.24000000000000019;9085794468.0;9116993408.0;-298949.0;-4799.998537319709;-4768.650217290722;-49.285379215839384;0.010723477998908493;-250.0;250.0107234779989
0.2440000000000002;9066594473.0;9097794800.0;-300336.0;-4799.998542828667;-4799.574389763489;-18.444334172097115;-0.0013772396414424293;-1333.3333333333333;1333.3319560936918
0.2480000000000002;9047394477.0;9078678589.0;-384120.0;-4799.99856462577;-4772.066043725617;-50.97969602964349;-0.005449275704449974;-1166.6666666666667;1166.6612173909623
0.25200000000000017;9028194482.0;9059337158.0;-242684.0;-4799.998583545622;-4831.222774443135;16.663183004514394;-0.004729962938654353;-1750.0;1749.9952700370613
0.25600000000000017;9008994487.0;9040198975.0;-304497.0;-4799.998593069843;-4809.442002365888;-8.826389633607505;-0.0023810553102521226;-1583.3333333333333;1583.330952278023
0.2600000000000002;8989794492.0;9020961914.0;-267431.0;-4799.998594272293;-4801.90247037293;-14.141976838118353;-0.00030061255529290065;-750.0;749.9996993874447
0.2640000000000002;8970594496.0;9001790771.0;-296283.0;-4799.998590829869;-4805.794767099925;-11.98080639095133;0.0008606061783211771;1000.0;-999.9991393938217
0.2680000000000002;8951394501.0;8982564697.0;-270204.0;-4799.998586018366;-4790.531226050898;-25.679606849559605;0.001202875637318357;-1166.6666666666667;1166.667869542304
0.2720000000000002;8932194506.0;8963228760.0;-134263.0;-4799.99858167751;-4839.218116891549;31.163747949158278;0.0010852140803763177;0.0;0.0010852140803763177
0.2760000000000002;8912994511.0;8944013672.0;-119170.0;-4799.998578351753;-4808.784076082609;1.6352917571166472;0.0008314391379826702;-3000.0;3000.000831439138
0.2800000000000002;8893794515.0;8924765625.0;-71118.0;-4799.998575864249;-4813.920965525672;9.655305141247482;0.0006218760972842574;1083.3333333333333;-1083.332711457236
0.2840000000000002;8874594520.0;8905638428.0;-143916.0;-4799.998573812192;-4797.306566347048;-11.326971037931798;0.0005130141289555468;1166.6666666666667;-1166.6661536525378
0.2880000000000002;8855394525.0;8886450806.0;-156290.0;-4799.998571865166;-4782.129787740312;-27.24618732493491;0.00048675656216801144;1916.6666666666667;-1916.6661799101046
0.2920000000000002;8836194530.0;8867202759.0;-108238.0;-4799.998569849445;-4808.373869177923;1.8810161257033542;0.0005039303232479142;500.0;-499.99949606967675
0.2960000000000002;8816994535.0;8847998657.0;-104131.0;-4799.998567721028;-4794.621900602572;-11.624530474735366;0.0005321041953720851;-1833.3333333333333;1833.3338654375286
0.3000000000000002;8797794539.0;8828690186.0;4345.0;-4799.998565504046;-4830.968411423564;31.23054240619149;0.0005542453891393961;-83.33333333333333;83.33388757872247
0.3040000000000002;8778594544.0;8809595947.0;-101411.0;-4799.9985632427815;-4787.196893582851;-18.88633327165826;0.0005653162133967271;-83.33333333333333;83.33389864954673
0.3080000000000002;8759394549.0;8790342407.0;-47867.0;-4799.998560970446;-4804.455388710886;1.584804090444777;0.0005680838057742221;1166.6666666666667;-1166.666098582861
0.3120000000000002;8740194554.0;8771149292.0;-54747.0;-4799.998558700666;-4805.839550882839;2.556168527761656;0.0005674451131199021;416.6666666666667;-416.66609922155357
0.3160000000000002;8720994559.0;8751945190.0;-50640.0;-4799.99855644224;-4789.956910014078;-13.080050069709614;0.0005646063527819933;-1083.3333333333333;1083.333897939686
0.32000000000000023;8701794564.0;8732603760.0;90795.0;-4799.998554188356;-4832.594742546484;38.04388472789833;0.0005634710760205053;-1000.0;1000.000563471076
0.32400000000000023;8682594569.0;8713333740.0;160820.0;-4799.998551932769;-4837.611382471621;47.26202690970513;0.000563896719540935;-1583.3333333333333;1583.3338972300528
0.32800000000000024;8663394573.0;8694019775.0;274790.0;-4799.998549676046;-4822.251296393685;38.74014308636015;0.0005641807092615636;-1666.6666666666667;1666.667230847376
0.33200000000000024;8644194578.0;8674942017.0;152553.0;-4799.998547414498;-4782.809221804149;-8.036149247154754;0.0005653871539834654;1750.0;-1749.999434612846
0.33600000000000024;8624994583.0;8655770874.0;123700.0;-4799.998545147841;-4769.321887138501;-23.254661654121264;0.00056666431191843;1500.0;-1499.999433335688
0.34000000000000025;8605794588.0;8636506348.0;188231.0;-4799.998542878628;-4814.0099024139645;25.305215884932295;0.0005673032319464255;3333.3333333333335;-3333.3327660301015
0.34400000000000025;8586594593.0;8617318726.0;175858.0;-4799.998540605156;-4805.431673812404;15.984609550987443;0.0005683677954948507;-1333.3333333333333;1333.3339017011288
0.34800000000000025;8567394598.0;8598076172.0;218417.0;-4799.998538328279;-4803.553613390752;16.66009140015285;0.0005692193099093856;-500.0;500.0005692193099
0.35200000000000026;8548194603.0;8578921509.0;173085.0;-4799.998536046577;-4803.141365643333;13.527925927602155;0.000570425527257612;83.33333333333333;-83.33276290780607
0.35600000000000026;8528994608.0;8559700928.0;193671.0;-4799.998533765442;-4787.845470415432;-0.5328070215136904;0.0005702838734578108;-500.0;500.00057028387346
0.36000000000000026;8509794613.0;8540634155.0;60449.0;-4799.998531478629;-4778.80443197313;-17.567163182351578;0.0005717031399399275;2916.6666666666665;-2916.6660949635266
0.36400000000000027;8490594618.0;8521539917.0;-45308.0;-4799.99852918983;-4772.577727317918;-30.13928555412167;0.0005721997240470955;1083.3333333333333;-1083.3327611336092
0.36800000000000027;8471394623.0;8502313843.0;-19229.0;-4799.998526898476;-4804.305786713634;3.1535161291030818;0.000572838644075091;1916.6666666666667;-1916.6660938280227
0.3720000000000003;8452194628.0;8483208618.0;-113999.0;-4799.998524603715;-4790.34588790131;-16.49258039337201;0.0005736901584896259;-1000.0;1000.0005736901585
0.3760000000000003;8432994633.0;8464026489.0;-131865.0;-4799.998522305548;-4788.413342696447;-19.49708330563226;0.0005745416729041608;-1416.6666666666667;1416.6672412083396
0.3800000000000003;8413794638.0;8444882813.0;-188184.0;-4799.9985200039755;-4789.344668905929;-21.94489480005268;0.0005753931873186957;416.6666666666667;-416.66609127347937
0.3840000000000003;8394594792.0;8425728149.0;-233515.0;-4799.961221498776;-4766.337554366026;-47.67186704044525;9.324626299985539;-1750.0;1759.3246262999855
0.3880000000000003;8375395616.0;8406518555.0;-223857.0;-4799.793745512679;-4805.498679658842;-7.916472084086308;41.86899652404463;1166.6666666666667;-1124.797670142622
0.3920000000000003;8356198046.0;8387336426.0;-241309.0;-4799.392257925124;-4800.695733264044;-13.677845169007924;100.37189688887338;-1250.0;1350.3718968888734
0.3960000000000003;8337007728.0;8368093872.0;-197298.0;-4797.579423817143;-4807.750379401159;-3.723043860918551;453.2085269952404;83.33333333333333;369.8751936619071
0.4000000000000003;8317841422.0;8348851318.0;-149448.0;-4791.5760866082255;-4818.365542213127;10.722812219881234;1500.8343022293502;-2083.3333333333335;3584.1676355626837
0.4040000000000003;8298728184.0;8329630737.0;-109708.0;-4778.309285543073;-4783.407823251117;-18.384473239757426;3316.7002662880805;-2166.6666666666665;5483.3669329547465
0.4080000000000003;8279732679.0;8310371704.0;3919.0;-4748.876053926943;-4813.165151928928;27.049108845215414;7358.307904032472;666.6666666666666;6691.641237365805
0.4120000000000003;8260811799.0;8291315918.0;-7164.0;-4730.2197779116805;-4765.15851413069;-1.9885301333270036;4664.069003815712;750.0;3914.0690038157118
0.4160000000000003;8242247469.0;8272304077.0;38070.0;-4641.0822820081985;-4750.951449876324;11.584057543615017;22284.373975870494;5833.333333333333;16451.040642537162
0.4200000000000003;8223977404.0;8253506470.0;55726.0;-4567.51604726115;-4720.7278580983175;29.08395042174743;18391.55868676221;6666.666666666667;11724.892020095544
0.4240000000000003;8206154159.0;8234956055.0;156393.0;-4455.811004643313;-4619.661613284994;16.60848386652833;27926.260654459154;9000.0;18926.260654459154
0.4280000000000003;8188890124.0;8216883545.0;134271.0;-4316.008713181229;-4522.623022964638;7.021487553421139;34950.572865521055;16000.0;18950.572865521055
0.43200000000000033;8172295812.0;8199113159.0;300512.0;-4148.577633648966;-4401.762180415734;18.756798192305723;41857.76988306566;17583.333333333332;24274.436549732323
0.43600000000000033;8156471142.0;8182166748.0;245146.0;-3956.167422839122;-4236.503946993221;0.768646684320629;48102.55270246103;30750.0;17352.552702461027
0.44000000000000034;8141503174.0;8165890503.0;228306.0;-3741.991692214584;-4044.263522028245;-15.30915092582245;53543.93265613453;33250.0;20293.93265613453
0.44400000000000034;8127462973.0;8150355835.0;273464.0;-3510.0501761210658;-3868.637195513334;12.667539792122625;57985.37902337955;44916.666666666664;13068.712356712887
0.44800000000000034;8114401130.0;8135650635.0;373521.0;-3265.460635148325;-3652.406468311999;23.532287220709804;61147.38524318523;44666.666666666664;16480.718576518564
0.45200000000000035;8102349682.0;8121829834.0;536588.0;-3012.861833655158;-3442.9622119958326;60.724214837935506;63149.70037329169;50666.666666666664;12483.033706625029
0.45600000000000035;8091326474.0;8109063721.0;635732.0;-2755.8018783690554;-3185.4657470547295;56.86736800052495;64264.988821525665;53833.333333333336;10431.655488192326
0.46000000000000035;8081338985.0;8097440186.0;609579.0;-2496.8721869985943;-2911.120110603627;35.27320155510324;64732.42284261528;61833.333333333336;2899.089509281943
0.46400000000000036;8072388403.0;8086723022.0;708157.0;-2237.645194227482;-2655.581437478479;43.424345285752224;64806.74819277806;63000.0;1806.748192778059
0.46800000000000036;8064469890.0;8077104492.0;744247.0;-1979.6282724787068;-2399.640317422472;48.685236475492275;64504.23043719382;65916.66666666667;-1412.4362294728458
0.47200000000000036;8057570041.0;8068458252.0;843028.0;-1724.9622475724682;-2135.720482091941;49.43773766261893;63666.50622655965;62583.333333333336;1083.1728932263118
0.47600000000000037;8051667006.0;8060850220.0;930384.0;-1475.7586170330094;-1891.8491018763596;67.50315121548533;62300.9076348647;65333.333333333336;-3032.425698468636
0.48000000000000037;8046726716.0;8054313354.0;956654.0;-1235.0724792159542;-1626.1060026535654;55.85615704355973;60171.53445426379;63500.0;-3328.465545736208
0.4840000000000004;8042696564.0;8048776245.0;966600.0;-1007.5378078654152;-1382.08862498381;58.29412335166012;56883.66783763476;65833.33333333333;-8949.665495698568
