Zeit[sec];Sollposition[°];Istposition[°];Positionsschleppfehler[°];Sollgeschwindigkeit[°/s];Istgeschwindigkeit[°/s];Geschwindigkeitsdifferenz[°/s];Sollbeschleunigung[°/s*s];Istbeschleunigung[°/s*s];Beschleunigungsdifferenz[°/s*s]
0.0;0.0;-10986.0;10986.0;0.0;-1.512074701454791;2.1712347014547912;0.0;0.0;0.0
0.004;0.0;-5493.0;5493.0;0.0;1.9760333928836813;-1.6464533928836813;0.0;0.0;0.0
0.008;0.0;-10986.0;10986.0;0.0;-1.891173885742057;2.550333885742057;0.0;0.0;0.0
0.012;0.0;-10986.0;10986.0;0.0;-2.501709505839171;3.160869505839171;0.0;0.0;0.0
0.016;0.0;-10986.0;10986.0;0.0;-0.956272461957865;1.615432461957865;0.0;0.0;0.0
0.02;0.0;-5493.0;5493.0;0.0;1.4499655593585459;-1.120385559358546;0.0;0.0;0.0
0.024;0.0;-5493.0;5493.0;0.0;0.36208519989919696;-0.032505199899196924;0.0;0.0;0.0
0.028;0.0;-10986.0;10986.0;0.0;-1.1929253413969632;1.8520853413969633;0.0;0.0;0.0
0.032;0.0;-10986.0;10986.0;0.0;-2.180841437986755;2.840001437986755;0.0;0.0;0.0
0.036000000000000004;-110.0;-10986.0;10986.0;-0.027619955615491392;-2.5068810725137407;3.1660410725137407;-6.904988903872848;0.0;-6.904988903872848
0.04000000000000001;-1211.0;-5493.0;5449.0;-0.2752514425050595;0.6850776824620776;-0.3690885633018134;-61.90787172239203;0.0;-61.90787172239203
0.04400000000000001;-6623.0;-5493.0;4947.0;-1.3529166550246985;1.4418958317275319;-1.2707159669753199;-269.41630312990975;0.0;-269.41630312990975
0.048000000000000015;-24510.0;-10986.0;7636.0;-4.471850852889216;-1.5584607103595103;1.315542815352853;-779.7335494661294;0.0;-779.7335494661294
0.05200000000000002;-69887.0;-5493.0;-8190.0;-11.34434222238448;1.686667457351992;-4.761278343878523;-1718.122842373816;0.0;-1718.122842373816
0.05600000000000002;-164794.0;-5493.0;-36904.0;-23.7265325831748;1.811564918482505;-11.204216211633334;-3095.5475901975806;0.0;-3095.5475901975806
0.060000000000000026;-336209.0;-5493.0;-101757.0;-42.8538955902829;1.5542871795814839;-23.873125904176796;-4781.840751777026;0.0;-4781.840751777026
0.06400000000000003;-613366.0;-5493.0;-226708.0;-69.28923788450524;1.209555111359886;-46.049716365160805;-6608.835573555584;0.0;-6608.835573555584
0.06800000000000003;-1026383.0;-5493.0;-439600.0;-103.25409205844122;1.7267604535545622;-81.3257818186535;-8491.213543483995;0.0;-8491.213543483995
0.07200000000000004;-1605917.0;-16479.0;-759018.0;-144.88367237122404;-2.1577353162760633;-125.98422196359313;-10407.395078195705;0.0;-10407.395078195705
0.07600000000000004;-2382207.0;-43945.0;-1209794.0;-194.07234627117856;-8.99979245527107;-183.14840491757073;-12297.16847498863;-250.0;-12047.16847498863
0.08000000000000004;-3383131.0;-131836.0;-1778472.0;-250.23105098108198;-21.068619040635987;-249.78199063674512;-14039.676177475854;-1250.0;-12789.676177475854
0.08400000000000005;-4632428.0;-373535.0;-2400974.0;-312.3242705106499;-67.36237672095146;-292.7462436018102;-15523.304882391983;-3000.0;-12523.304882391983
0.08800000000000005;-6148609.0;-1208496.0;-2664097.0;-379.0452762347557;-233.48736867597043;-200.8794387316204;-16680.25143102645;-9750.0;-6930.251431026449
0.09200000000000005;-7944356.0;-2675171.0;-2551079.0;-448.9367094943697;-358.86388066754523;-132.61513863881714;-17472.858314903504;-24416.666666666668;6943.808351763163
0.09600000000000006;-10026701.0;-4257202.0;-2594509.0;-520.586070196464;-400.32587146861147;-161.70986260702182;-17912.340175523568;-28750.0;10837.659824476432
0.10000000000000006;-12398280.0;-6201782.0;-2557669.0;-592.8948000054353;-492.82385972623723;-137.57132164849628;-18077.18245224282;-26416.666666666668;8339.484214423845
0.10400000000000006;-15059135.0;-8519897.0;-2434897.0;-665.2137073855529;-581.5304584467593;-113.39889282219463;-18079.7268450294;-19083.333333333332;1003.6064883039337
0.10800000000000007;-18008286.0;-11376343.0;-2063028.0;-737.287721853414;-717.452452708763;-27.47366012623661;-18018.50361696529;-21833.333333333332;3814.8297163680418
0.11200000000000007;-21244714.0;-14523926.0;-1688910.0;-809.1069416506997;-777.3642244247959;-17.33655994285732;-17954.804949321413;-27166.666666666668;9211.861717345255
0.11600000000000008;-24767759.0;-17687988.0;-1586211.0;-880.7613346897409;-799.3991630709504;-61.114108578255355;-17913.598259760307;-20416.666666666668;2503.068406906362
0.12000000000000008;-28577146.0;-21307983.0;-1314600.0;-952.3466983349824;-914.6618429568831;-1.3101301929052624;-17896.340911310373;-16750.0;-1146.340911310375
0.12400000000000008;-32672848.0;-25274048.0;-983431.0;-1023.9252767409599;-989.942347571135;22.212524676575867;-17894.644601494376;-16000.0;-1894.6446014943774
0.12800000000000009;-37054939.0;-29344482.0;-834225.0;-1095.5228278941981;-1017.4595619522469;-12.900978815309259;-17899.387788309552;-18750.0;850.6122116904464
0.1320000000000001;-41723504.0;-33568726.0;-817554.0;-1167.1412836269892;-1061.728679194636;-39.21774213399863;-17904.613933197765;-15750.0;-2154.6139331977656
0.1360000000000001;-46678596.0;-38150024.0;-730252.0;-1238.7727781230396;-1149.508126632479;-17.8059030201116;-17907.87362401261;-12000.0;-5907.873624012609
0.1400000000000001;-51920231.0;-43011475.0;-649291.0;-1310.4088577149128;-1220.0543816381546;-14.025490925357872;-17909.01989796828;-14666.666666666666;-3242.353231301612
0.1440000000000001;-57448409.0;-48153076.0;-574713.0;-1382.0442601939908;-1292.236621058455;-9.00180752095639;-17908.85061976951;-18083.333333333332;174.48271356382247
0.1480000000000001;-63263117.0;-53684692.0;-396662.0;-1453.6771095477905;-1385.5430634390586;23.351910598213635;-17908.212338449914;-19750.0;1841.7876615500859
0.1520000000000001;-69364348.0;-59468994.0;-252464.0;-1525.3076383591774;-1441.6149883916864;16.441321378586736;-17907.63220284674;-19750.0;1842.3677971532584
0.1560000000000001;-75752096.0;-65484009.0;-164080.0;-1596.9368397146332;-1500.5257290285763;9.023157760765798;-17907.300338863934;-18833.333333333332;926.0329944693985
0.16000000000000011;-82426359.0;-71729736.0;-131505.0;-1668.5656261607485;-1557.906826400036;-3.271260960553491;-17907.19661152883;-16416.666666666668;-1490.529944862164
0.16400000000000012;-89387137.0;-78173218.0;-187691.0;-1740.1945232151643;-1620.9907801485176;-15.187511840519846;-17907.224263603952;-13333.333333333334;-4573.890930270616
0.16800000000000012;-96634432.0;-84814453.0;-332639.0;-1811.8236973353685;-1660.3090939387116;-56.194910782014404;-17907.29353005105;-13833.333333333334;-4073.9601967177155
0.17200000000000013;-104168245.0;-91708374.0;-511416.0;-1883.453106937336;-1729.0208014232176;-69.83882955608533;-17907.3524004919;-13000.0;-4907.352400491902
0.17600000000000013;-111988576.0;-99091187.0;-487820.0;-1955.0826437218923;-1855.9134588253444;-13.159678015568943;-17907.38419613905;-16666.666666666668;-1240.7175294723806
0.18000000000000013;-120095386.0;-106869507.0;-355234.0;-2026.7024064028926;-1946.7383776772367;13.990942188223016;-17904.940670250086;-21666.666666666668;3761.7259964165833
0.18400000000000014;-128488421.0;-114719238.0;-437739.0;-2098.258733933698;-1966.0491817826025;-43.2742144664162;-17889.081882701306;-22333.333333333332;4444.251450632028
0.18800000000000014;-137166913.0;-122843628.0;-531964.0;-2169.622748958614;-2037.347314043856;-49.224251110424575;-17841.00375622904;-17833.333333333332;-7.670422895710544
0.19200000000000014;-146129030.0;-131544800.0;-335329.0;-2240.5291268657647;-2176.914479437177;30.660563965459914;-17726.594476787683;-16666.666666666668;-1059.9278101210139
0.19600000000000015;-155370442.0;-140570068.0;-99334.0;-2310.3528635998646;-2253.099587957553;49.821676596445286;-17455.934183524958;-22083.333333333332;4627.399149808372
0.20000000000000015;-164882011.0;-149468994.0;-271599.0;-2377.8922352106783;-2230.4662908240857;-53.62732960281346;-16884.84290270344;-20750.0;3865.15709729656
0.20400000000000015;-174648150.0;-158670044.0;-417438.0;-2441.5345138929238;-2315.4657091919735;-46.30261649147042;-15910.569670561359;-12416.666666666666;-3493.903003894692
0.20800000000000016;-184646916.0;-168250122.0;-448279.0;-2499.691478115127;-2397.6840505291866;-31.94235526286593;-14539.241055550861;-11000.0;-3539.2410555508604
0.21200000000000016;-194851343.0;-178088379.0;-466902.0;-2551.1066313225747;-2459.460248407269;-32.77380912053832;-12853.788301861869;-15666.666666666666;2812.8783648047975
0.21600000000000016;-205231179.0;-188179321.0;-454904.0;-2594.9588665057086;-2523.22040005981;-23.809859478060844;-10963.058795783469;-20083.333333333332;9120.274537549863
0.22000000000000017;-215754646.0;-198599854.0;-307140.0;-2630.866688233004;-2621.8735361813315;35.25303946314261;-8976.955431823853;-16750.0;7773.044568176147
0.22400000000000017;-226389904.0;-209360962.0;18212.0;-2658.814385225476;-2692.221888269596;84.37579819925713;-6986.924248118044;-18750.0;11763.075751881956
0.22800000000000017;-237106237.0;-220056152.0;146453.0;-2679.083192493468;-2663.5994563016334;30.64952028681364;-5067.201816997908;-16750.0;11682.79818300209
0.23200000000000018;-247875716.0;-230597534.0;21087.0;-2692.3694998862406;-2636.2884448767795;-29.13322969327237;-3321.5768481932173;-7833.333333333333;4511.756485140116
0.23600000000000018;-258675482.0;-241177368.0;-136008.0;-2699.941324872235;-2652.090851467603;-40.301871765960186;-1892.9562464985565;1750.0;-3642.9562464985565
0.24000000000000019;-269489286.0;-252026367.0;-68185.0;-2703.4509751390506;-2711.1254188822904;11.74055815624979;-877.4125667039243;1083.3333333333333;-1960.7459000372576
0.2440000000000002;-280307291.0;-262908325.0;8619.0;-2704.5011425748494;-2717.324017690784;16.552677488070458;-262.54185894970306;-5916.666666666667;5654.124807716964
0.2480000000000002;-291124683.0;-273757324.0;42230.0;-2704.3477971759685;-2711.2389742093224;9.925988447872896;38.33634972022537;-6666.666666666667;6705.003016386892
0.25200000000000017;-301939947.0;-284760132.0;227301.0;-2703.8159493338594;-2750.5815772712185;59.78544707582296;132.96196052726827;-4166.666666666667;4299.628627193935
0.25600000000000017;-312753289.0;-295642090.0;292707.0;-2703.3351777483977;-2706.9234228308123;20.348016505921805;120.19289636543817;-2250.0;2370.192896365438
0.2600000000000002;-323565477.0;-306150513.0;-13384.0;-2703.046949473472;-2636.0310715870055;-68.40041562122542;72.05706873139661;4333.333333333333;-4261.276264601936
0.2640000000000002;-334377215.0;-316862183.0;-114610.0;-2702.9344838844454;-2684.911276386791;-25.18904037517359;28.11639725666737;6916.666666666667;-6888.55026941
0.2680000000000002;-345188923.0;-327689209.0;-99601.0;-2702.9267863542464;-2697.5198584483237;-11.460249013923203;1.9243825497596845;3833.3333333333335;-3831.408950783574
0.2720000000000002;-356000757.0;-338466797.0;-133741.0;-2702.958314845353;-2699.4837612915794;-11.47278962047585;-7.882122776663891;-2583.3333333333335;2575.4512105566696
0.2760000000000002;-366812718.0;-349409180.0;-3116.0;-2702.9900951868362;-2739.5133006376377;36.387008626586976;-7.945085370806737;-5500.0;5492.054914629193
0.2800000000000002;-377624750.0;-360379028.0;154848.0;-2703.007969568733;-2742.471902762442;48.79205224551242;-4.468595474236281;-3500.0;3495.5314045257637
0.2840000000000002;-388436801.0;-371112671.0;76503.0;-2703.0125386502555;-2681.7440946485262;-16.66272123851104;-1.1422703805692436;-1833.3333333333333;1832.191062952764
0.2880000000000002;-399248840.0;-381741943.0;-106264.0;-2703.009657889295;-2665.0870491277547;-44.298467277702;0.7201902401448024;4333.333333333333;-4332.613143093188
0.2920000000000002;-410060859.0;-392596436.0;-63818.0;-2703.00477500902;-2714.5120336102923;7.671583908708271;1.2207200687726072;4750.0;-4748.779279931227
0.2960000000000002;-420872864.0;-403522339.0;50054.0;-2703.000937155352;-2720.714146655851;20.709647872835376;0.9594634169616256;-1166.6666666666667;1167.6261300836284
0.3000000000000002;-431684860.0;-414354858.0;70560.0;-2702.998991268357;-2720.8629959339833;22.093313963348464;0.48647174878624355;-4000.0;4000.4864717487862
0.3040000000000002;-442496855.0;-425324707.0;228407.0;-2702.9985523141345;-2748.171668341545;58.87590021255619;0.10973855557949719;-3250.0;3250.1097385555795
0.3080000000000002;-453308851.0;-436157227.0;248931.0;-2702.9988842391763;-2691.5086565089473;3.445687877403543;-0.08298126044792298;-1000.0;999.9170187395521
0.3120000000000002;-464120849.0;-446671143.0;-49148.0;-2702.9993944206562;-2634.3962435319154;-71.55132295731028;-0.12754536999182164;4333.333333333333;-4333.460878703325
0.3160000000000002;-474932849.0;-457338867.0;-193421.0;-2702.9997773490704;-2675.901581586047;-38.70276298723638;-0.09573210354574258;7083.333333333333;-7083.429065436879
0.32000000000000023;-485744849.0;-468237305.0;-106981.0;-2702.9999607986883;-2724.3589718383605;14.940568581916978;-0.04586240447679302;3500.0;-3500.045862404477
0.32400000000000023;-496556850.0;-479102783.0;-53503.0;-2702.9999936421136;-2708.840043144155;2.630015303905566;-0.008210856321966276;-5750.0;5749.991789143678
0.32800000000000024;-507368850.0;-489913330.0;-54957.0;-2702.999953964691;-2713.5990045069143;7.301611761224194;0.00991935564798041;-4916.666666666667;4916.676586022315
0.33200000000000024;-518180850.0;-500850220.0;69933.0;-2702.9999010605616;-2732.885826980395;34.08182926220661;0.013226032365309948;-1833.3333333333333;1833.3465593656986
0.33600000000000024;-528992850.0;-511666260.0;73973.0;-2702.99986363465;-2695.7677137917794;-2.793839429741638;0.009356477903565974;-83.33333333333333;83.3426898112369
0.34000000000000025;-539804850.0;-522229614.0;-174673.0;-2702.999847031112;-2652.2493373204006;-61.23092921135776;0.004150884478804073;3083.3333333333335;-3083.3291824488547
0.34400000000000025;-550616850.0;-532952271.0;-264016.0;-2702.999845223564;-2689.0054573164507;-29.835359954455726;0.00045188699004938826;5500.0;-5499.99954811301
0.34800000000000025;-561428850.0;-543823242.0;-205045.0;-2702.9998500219085;-2710.199409306613;-5.103137105118549;-0.001199586108668882;1500.0;-1500.0011995861087
0.35200000000000026;-572240850.0;-554578857.0;-261430.0;-2702.9998555794277;-2691.8953309397725;-26.79031619685884;-0.0013893798040953698;-3166.6666666666665;3166.6652772868624
0.35600000000000026;-583052850.0;-565598145.0;-54142.0;-2702.999859269139;-2760.953104426242;54.70473222898181;-0.000922427830118977;-4833.333333333333;4833.332410905503
0.36000000000000026;-593864849.0;-576754761.0;290474.0;-2702.9998607738235;-2772.318678047988;86.74726103821376;-0.0003761711013794411;-6583.333333333333;6583.332957162232
0.36400000000000027;-604676849.0;-587444458.0;168171.0;-2702.9998608204987;-2661.978931011192;-30.930668832906576;-1.166881702374667e-05;-2750.0;2749.999988331183
0.36800000000000027;-615488849.0;-598095703.0;7417.0;-2702.99986026824;-2666.560539186825;-35.994301596686455;0.00013806470633426215;5083.333333333333;-5083.333195268627
0.3720000000000003;-626300849.0;-608895264.0;-5022.0;-2702.99985969307;-2697.7184321067743;-5.582748494484349;0.00014379247659235261;8916.666666666666;-8916.66652287419
0.3760000000000003;-637112849.0;-619601440.0;-110846.0;-2702.999859333373;-2672.099587898563;-37.55103214486917;8.992424227471929e-05;3333.3333333333335;-3333.333243409091
0.3800000000000003;-647924849.0;-630499878.0;-24408.0;-2702.9998592000784;-2729.1615791905297;24.697239636708673;3.332365849928465e-05;-3166.6666666666665;3166.666699990325
0.3840000000000003;-658736849.0;-641486206.0;149920.0;-2702.999859208959;-2734.838488266085;40.8338289834478;-2.2201902538654394e-06;-5416.666666666667;5416.666664446477
0.3880000000000003;-669548849.0;-652384644.0;236358.0;-2702.9998592709635;-2714.7646647071015;25.946285502727278;-1.5501086636504624e-05;-3583.3333333333335;3583.333317832247
0.3920000000000003;-680360849.0;-663057861.0;97575.0;-2702.999859329967;-2654.8864378798276;-42.2589213536603;-1.475086719437968e-05;-750.0;749.9999852491328
0.3960000000000003;-691172849.0;-673593750.0;-178536.0;-2702.999859364679;-2640.3577539442717;-73.35426534972157;-8.678057383804116e-06;9083.333333333334;-9083.333342011392
0.4000000000000003;-701984849.0;-684398804.0;-185482.0;-2702.999859376115;-2696.84346287016;-17.285316473222792;-2.8589965950232e-06;5666.666666666667;-5666.666669525664
0.4040000000000003;-712796849.0;-695159912.0;-236374.0;-2702.999859373844;-2689.7423475290284;-27.43995183998595;5.677520675817505e-07;166.66666666666666;-166.6666660989146
0.4080000000000003;-723608781.0;-706025391.0;-182895.0;-2702.982938452061;-2728.9125879779826;14.939028602831058;4.230230445841698;-4833.333333333333;4837.563563779175
0.4120000000000003;-734420208.0;-717149048.0;128789.0;-2702.8566124299086;-2772.405799707523;77.13998921475786;31.58150553804262;-7500.0;7531.581505538043
0.4160000000000003;-745229803.0;-727844238.0;12246.0;-2702.3985781340452;-2666.561079077151;-35.63711222700158;114.50857396584979;-3000.0;3114.50857396585
0.4200000000000003;-756034645.0;-738424072.0;-218623.0;-2701.2103320815413;-2657.648528402138;-58.14460077777858;297.06151312598195;4333.333333333333;-4036.271820207351
0.4240000000000003;-766828795.0;-749306030.0;-144387.0;-2698.5373331094315;-2718.1913253150146;7.597964379740461;668.2497430274452;6083.333333333333;-5415.083590305888
0.4280000000000003;-777601133.0;-760226440.0;-24607.0;-2693.084482824702;-2722.1471842604087;20.51327212649221;1363.21257118243;166.66666666666666;1196.5459045157634
0.43200000000000033;-788333919.0;-771113892.0;77280.0;-2683.1963338133637;-2709.9026104526165;18.14838517694534;2472.037252834525;-7083.333333333333;9555.370586167857
0.43600000000000033;-799003155.0;-782105713.0;312317.0;-2667.3089884609894;-2739.410158184445;68.95324164577141;3971.836338093567;-3833.3333333333335;7805.1696714269
0.44000000000000034;-809580222.0;-792949219.0;448002.0;-2644.266543711098;-2699.620576212447;49.54550821841303;5760.6111874728185;-83.33333333333333;5843.944520806152
0.44400000000000034;-820033836.0;-803397217.0;262935.0;-2613.403435699515;-2609.020133198084;-33.469875871943714;7715.777002895834;5666.666666666667;2049.110336229167
0.44800000000000034;-830331913.0;-813740845.0;77903.0;-2574.519124903864;-2593.4701046798477;-34.02053326542227;9721.077698912723;12000.0;-2278.9223010872774
0.45200000000000035;-840443070.0;-824183350.0;127739.0;-2527.7891128480005;-2599.9516498841376;9.448737324250033;11682.503013965856;10583.333333333334;1099.1696806325226
0.45600000000000035;-850337771.0;-834351196.0;70708.0;-2473.6749904383714;-2537.4281990368686;-14.548564001857358;13528.530602407272;7000.0;6528.530602407272
0.46000000000000035;-859989823.0;-844381714.0;74795.0;-2413.012981757748;-2510.300161910738;8.180344400606373;15165.502170155833;5666.666666666667;9498.835503489165
0.46400000000000036;-869378449.0;-854324341.0;217659.0;-2347.1564269800747;-2474.6129974015294;37.732010625141356;16464.138694418354;8750.0;7714.138694418352
0.46800000000000036;-878489602.0;-863964844.0;309132.0;-2277.7880724010924;-2397.8814548425057;29.172046588327248;17342.08864474556;10500.0;6842.088644745559
0.47200000000000036;-887315510.0;-873067017.0;131150.0;-2206.4769663435372;-2281.1796423111073;-30.99019420960076;17827.776514388803;15500.0;2327.776514388802
0.47600000000000037;-895853006.0;-881965942.0;30391.0;-2134.3738564973646;-2223.411573126567;-24.685755161344787;18025.777461543155;21000.0;-2974.222538456843
0.48000000000000037;-904101624.0;-890683594.0;34815.0;-2062.154282959561;-2181.0322440251007;4.814095612427536;18054.89338445091;21000.0;-2945.1066155490935
0.4840000000000004;-912062050.0;-899132080.0;58650.0;-1990.1064860151246;-2101.736195166321;-0.9072080133892086;18011.949236109103;15083.333333333334;2928.6159027757694
0.4880000000000004;-919735151.0;-907146606.0;-62871.0;-1918.275294452851;-2001.746528193811;-36.03735058780376;17957.79789056837;16333.333333333334;1624.4645572350382
0.4920000000000004;-927121542.0;-915007324.0;-50348.0;-1846.5975767870882;-1968.649767652397;3.580191669132091;17919.429416440722;18416.666666666668;-497.2372502259468
0.4960000000000004;-934221512.0;-922818604.0;199824.0;-1774.992408884624;-1939.4571252612645;61.16948001049309;17901.291975616063;15583.333333333334;2317.9586422827274
