Zeit[sec];Sollposition[°];Istposition[°];Positionsschleppfehler[°];Sollgeschwindigkeit[°/s];Istgeschwindigkeit[°/s];Geschwindigkeitsdifferenz[°/s];Sollbeschleunigung[°/s*s];Istbeschleunigung[°/s*s];Beschleunigungsdifferenz[°/s*s]
0.0;0.0;0.0;0.0;-0.0;-0.12038649263640487;0.12038649263640487;0.0;0.0;0.0
0.004;0.0;0.0;0.0;-0.0;-0.6586513152233349;0.6586513152233349;0.0;0.0;0.0
0.008;0.0;0.0;0.0;-0.0;-0.8805676059843136;0.8805676059843136;0.0;0.0;0.0
0.012;0.0;0.0;0.0;-0.0;-0.8273936518715809;0.8273936518715809;0.0;0.0;0.0
0.016;0.0;0.0;0.0;-0.0;-0.5774809699051013;0.5774809699051013;0.0;0.0;0.0
0.02;0.0;0.0;0.0;-0.0;-0.5468392218693813;0.5468392218693813;0.0;0.0;0.0
0.024;0.0;0.0;0.0;-0.0;-0.16307198568909304;0.16307198568909304;0.0;0.0;0.0
0.028;0.0;5493.0;-5493.0;-0.0;2.158584502632135;-2.488164502632135;0.0;0.0;0.0
0.032;0.0;0.0;0.0;-0.0;-0.5431563415635212;0.5431563415635212;0.0;0.0;0.0
0.036000000000000004;-580.0;5493.0;-5493.0;-0.14518651337352179;1.9750813037947907;-2.3046613037947905;-36.29662834338045;0.0;-36.29662834338045
0.04000000000000001;-6368.0;0.0;-230.0;-1.446881298242486;-1.3920256327600187;1.3206614487466888;-325.423696217241;0.0;-325.423696217241
0.04400000000000001;-34815.0;0.0;-2871.0;-7.111714977479336;-0.3657909135250065;-0.46690654084124794;-1416.2084198092125;0.0;-1416.2084198092125
0.048000000000000015;-128841.0;0.0;-17613.0;-23.506642903266872;-0.5119325289408448;-4.230119692212723;-4098.731981446884;0.0;-4098.731981446884
0.05200000000000002;-367371.0;0.0;-71928.0;-59.63244534906455;-0.40300003939655205;-17.491535305069423;-9031.450611449418;0.0;-9031.450611449418
0.05600000000000002;-866253.0;0.0;-222864.0;-124.72042273173517;0.5640868076234286;-51.669821884170695;-16271.994345667656;0.0;-16271.994345667656
0.060000000000000026;-1767313.0;-16479.0;-547293.0;-225.26494147371173;-2.5756686084260094;-115.48904814951499;-25136.12968549414;-83.33333333333333;-25052.796352160807
0.06400000000000003;-3224210.0;-54932.0;-1165654.0;-364.22443985124204;-9.86525699838936;-224.2773615389576;-34739.87459438258;-416.6666666666667;-34323.207927715914
0.06800000000000003;-5395264.0;-252686.0;-2086984.0;-542.7634217167503;-52.02460798751533;-352.96551531122134;-44634.745466377055;-2250.0;-42384.745466377055
0.07200000000000004;-8441593.0;-1301880.0;-2774582.0;-761.5820541347065;-306.75968298924124;-293.91337768927735;-54704.658104489055;-10416.666666666666;-44287.99143782239
0.07600000000000004;-12521861.0;-4026489.0;-2563876.0;-1020.0671484300096;-681.6877784329804;-100.62024514948985;-64621.27357382579;-40416.666666666664;-24204.606907159126
0.08000000000000004;-17781794.0;-7360840.0;-2680666.0;-1314.9830207350744;-826.7462741292745;-196.87890063959742;-73728.9680762662;-62583.333333333336;-11145.634742932863
0.08400000000000005;-24343027.0;-11409302.0;-3174132.0;-1640.308389635486;-1038.753075318803;-287.17696732027366;-81331.3422251029;-65000.0;-16331.3422251029
0.08800000000000005;-32290655.0;-17116699.0;-3235701.0;-1986.9066918622575;-1452.450781013694;-183.93270259221686;-86649.57555669287;-60166.666666666664;-26482.908890026203
0.09200000000000005;-41658620.0;-24340210.0;-3115483.0;-2341.9912939405363;-1818.9695486782407;-143.78242885828695;-88771.15051956968;-71083.33333333333;-17687.81718623636
0.09600000000000006;-52421760.0;-32958984.0;-2999355.0;-2690.7847335181746;-2167.501238682782;-138.12140027949545;-87198.35989440957;-90083.33333333333;2884.973438923751
0.10000000000000006;-64500334.0;-43066406.0;-2804740.0;-3019.643484832293;-2557.363425694864;-89.1228433004103;-82214.68782852958;-93583.33333333333;11368.645504803751
0.10400000000000006;-77772081.0;-54750366.0;-2397295.0;-3317.936555843863;-2928.427130232137;-34.53894820407049;-74573.26775289254;-92583.33333333333;18010.06558044078
0.10800000000000007;-92086024.0;-67648315.0;-2043286.0;-3578.485530082756;-3233.759936303652;-24.8223436095127;-65137.24355972329;-91000.0;25862.756440276713
0.11200000000000007;-107275500.0;-81639404.0;-1730168.0;-3797.368881087463;-3495.891541863102;-27.410880225801975;-54720.837751176645;-86666.66666666667;31945.828915490027
0.11600000000000008;-123168334.0;-96525879.0;-1498664.0;-3973.208306143547;-3732.3280838663723;-21.334460691461118;-43959.85626402103;-72083.33333333333;28123.4770693123
0.12000000000000008;-139594404.0;-112412109.0;-1075651.0;-4106.517226804287;-3966.365536816293;36.022530819901476;-33327.23016518503;-64916.666666666664;31589.436501481636
0.12400000000000008;-156394713.0;-128726807.0;-861085.0;-4200.077143645373;-4087.9028054612495;11.204804358791534;-23389.979210271576;-54333.333333333336;30943.35412306176
0.12800000000000009;-173432963.0;-145513916.0;-645301.0;-4259.56226588915;-4194.3663488208;12.81712381971738;-14871.280560944115;-44916.666666666664;30045.38610572255
0.1320000000000001;-190603699.0;-162559204.0;-492470.0;-4292.683723600767;-4277.1197348282185;24.45767230596357;-8280.36442790426;-30333.333333333332;22052.968905429072
0.1360000000000001;-207833550.0;-179939575.0;-201483.0;-4307.462485540573;-4336.520451474035;52.085610763151635;-3694.6904849514794;-24166.666666666668;20471.97618171519
0.1400000000000001;-225078085.0;-197078247.0;-256209.0;-4311.133624460544;-4277.437626135761;-36.28411461470478;-917.784729992718;-14500.0;13582.215270007282
0.1440000000000001;-242316106.0;-214079590.0;-490193.0;-4309.505196402693;-4268.552183615515;-69.69083683703866;407.1070144625537;-2583.3333333333335;2990.440347795887
0.1480000000000001;-259541945.0;-231542358.0;-269291.0;-4306.459557152222;-4366.915867898384;40.291940298199734;761.4098126177851;750.0;11.409812617785065
0.1520000000000001;-276757782.0;-248966675.0;-78203.0;-4303.9588258507665;-4355.437138326794;42.43776872814851;625.182825363936;-4083.3333333333335;4708.51615869727
0.1560000000000001;-293968027.0;-266099854.0;-166969.0;-4302.561064283823;-4303.942079237516;-11.561962570091055;349.440391735925;-4916.666666666667;5266.107058402592
0.16000000000000011;-311176351.0;-283491211.0;10710.0;-4302.080960771105;-4342.724888454312;39.94820050234466;120.02587817937638;-1083.3333333333333;1203.3592115127096
0.16400000000000012;-328384797.0;-300964966.0;274949.0;-4302.111109016479;-4375.604338284859;89.72237753302943;-7.537061343327878;1250.0;-1257.5370613433279
0.16800000000000012;-345594030.0;-318147583.0;249182.0;-4302.30811291292;-4282.747916398519;-4.396890787330449;-49.25097411023671;-2750.0;2700.7490258897633
0.17200000000000013;-362803956.0;-335181885.0;74727.0;-4302.481424842536;-4265.049119880582;-32.65630145277464;-43.32798240420743;4833.333333333333;-4876.6613157375405
0.17600000000000013;-380014241.0;-352419434.0;102773.0;-4302.570922437589;-4311.748156008706;15.53886194340248;-22.374398763076897;5916.666666666667;-5939.041065429744
0.18000000000000013;-397224597.0;-369810791.0;284065.0;-4302.58887851354;-4324.057460854149;38.58546711316285;-4.489018987896998;166.66666666666666;-171.15568565456365
0.18400000000000014;-414434878.0;-386828613.0;91576.0;-4302.569880167053;-4264.220568324683;-32.862389016482666;4.749586621755952;-2166.6666666666665;2171.4162532884225
0.18800000000000014;-431645050.0;-403923340.0;-24023.0;-4302.542974286439;-4288.5251209620965;-15.497499792528288;6.726470153580522;2250.0;-2243.2735298464195
0.19200000000000014;-448855144.0;-421215820.0;58219.0;-4302.523194612338;-4321.127304796054;22.061121071824346;4.944918525325193;3166.6666666666665;-3161.7217481413413
0.19600000000000015;-466065200.0;-438447876.0;80133.0;-4302.513902724007;-4316.578554899604;18.851245293247302;2.322972082765773;-1916.6666666666667;1918.9896387494325
0.20000000000000015;-483275251.0;-455625000.0;47178.0;-4302.512400608835;-4287.364895097905;-12.324051322421838;0.3755287928015605;-4333.333333333333;4333.708862126135
0.20400000000000015;-500485310.0;-472983398.0;195522.0;-4302.514590111813;-4339.899557925013;49.117516321546645;-0.5473757444178773;-333.3333333333333;332.78595758891544
0.20800000000000016;-517695380.0;-490089111.0;91181.0;-4302.51740098696;-4277.148453408391;-19.893964105623127;-0.7027187866697204;-333.3333333333333;332.6306145466636
0.21200000000000016;-534905459.0;-507381592.0;173598.0;-4302.519366876472;-4321.238824671138;29.139012920373716;-0.4914723781439534;1250.0;-1250.491472378144
0.21600000000000016;-552115540.0;-524487305.0;69238.0;-4302.520232079906;-4301.766764224719;3.4028802632574298;-0.2163008584830095;1666.6666666666667;-1666.8829675251498
0.22000000000000017;-569325622.0;-541862183.0;234036.0;-4302.520323225057;-4318.664427837611;30.186889440379673;-0.022786287672715844;-1416.6666666666667;1416.643880378994
0.22400000000000017;-586535704.0;-558731689.0;-106539.0;-4302.520071759888;-4246.736598885858;-62.17600426212448;0.06286629218266171;3000.0;-2999.9371337078173
0.22800000000000017;-603745783.0;-575765991.0;-282319.0;-4302.519782743901;-4258.665228765096;-60.79413422390098;0.07225399690469203;3416.6666666666665;-3416.594412669762
0.23200000000000018;-620955863.0;-593140869.0;-117522.0;-4302.519592002896;-4338.660269496516;29.088990853520954;0.04768525104736909;2833.3333333333335;-2833.285648082286
0.23600000000000018;-638165942.0;-610378418.0;-90052.0;-4302.519515065155;-4309.921444772159;1.998615960637835;0.01923443528539792;-6083.333333333333;6083.352567768618
0.24000000000000019;-655376020.0;-627555542.0;-123008.0;-4302.519513572331;-4305.767916544022;-4.13212607188143;0.00037320614865166135;-4000.0;4000.0003732061487
0.2440000000000002;-672586099.0;-644842529.0;-46100.0;-4302.519542736075;-4310.931799556833;5.6462846327458465;-0.007290936082426924;-1333.3333333333333;1333.3260423972508
0.2480000000000002;-689796179.0;-662288818.0;190111.0;-4302.519572725809;-4366.331793229129;75.21892808508528;-0.007497433443859336;-250.0;249.99250256655614
0.25200000000000017;-707006258.0;-679509888.0;201102.0;-4302.51959133183;-4291.967440779454;1.514006323805006;-0.004651505378205911;-4250.0;4249.995348494622
0.25600000000000017;-724216337.0;-696582642.0;63776.0;-4302.519598136183;-4281.547603780959;-17.14541614612517;-0.0017010881947499001;3583.3333333333335;-3583.3350344215282
0.2600000000000002;-741426416.0;-713721313.0;-7632.0;-4302.519597581843;-4297.821311685861;-5.156202234767989;0.00013858493730367627;5083.333333333333;-5083.333194748396
0.2640000000000002;-758636495.0;-731008301.0;69277.0;-4302.519594313028;-4309.242007688931;10.879029812409499;0.0008172037269105203;2583.3333333333335;-2583.3325161296066
0.2680000000000002;-775846575.0;-748053589.0;-95514.0;-4302.519591239786;-4267.223660403992;-41.02677588505685;0.0007683106559852604;-1000.0;1000.000768310656
0.2720000000000002;-793056654.0;-765252686.0;-106496.0;-4302.519589444777;-4297.333330156621;-11.576022957072382;0.0004487521891860524;-750.0;750.0004487521892
0.2760000000000002;-810266733.0;-782583618.0;14356.0;-4302.519588860031;-4325.295910472231;23.63767992613066;0.0001461864940210944;-250.0;250.00014618649402
0.2800000000000002;-827476812.0;-799738770.0;-40571.0;-4302.519588985504;-4290.016542648077;-14.937306575372531;-3.136824489047285e-05;-2083.3333333333335;2083.3333019650886
0.2840000000000002;-844686891.0;-817025757.0;36337.0;-4302.519589344812;-4307.071923250481;6.7325543372817265;-8.982692634162959e-05;-2333.3333333333335;2333.333243506407
0.2880000000000002;-861896970.0;-834378662.0;179163.0;-4302.519589656856;-4341.263742185159;49.49393305792728;-7.801099854987115e-05;-83.33333333333333;83.33325532233478
0.2920000000000002;-879107050.0;-851489868.0;80290.0;-4302.519589828224;-4274.495200186721;-23.20698927970352;-4.284197530068923e-05;-750.0;749.9999571580247
0.2960000000000002;-896317129.0;-868760376.0;140719.0;-4302.5195898766315;-4321.384941014101;27.30849129113267;-1.2101963875466026e-05;2000.0;-2000.0000121019639
0.3000000000000002;-913527208.0;-885932007.0;102270.0;-4302.519589857071;-4304.892962612222;8.509572765812663;4.890125637757592e-06;1083.3333333333333;-1083.3333284432076
0.3040000000000002;-930737287.0;-903246460.0;206644.0;-4302.51958981811;-4300.548937451979;10.427987583375398;9.740233508637175e-06;-666.6666666666666;666.6666764069001
0.3080000000000002;-947947366.0;-920050049.0;-199846.0;-4302.51958978675;-4227.543133304055;-86.96721653768964;7.840071702958085e-06;3500.0;-3499.9999921599283
0.3120000000000002;-965157445.0;-937210693.0;-249281.0;-4302.519589770529;-4274.262800329211;-43.213649476696446;4.055209501530044e-06;4000.0;-3999.9999959447905
0.3160000000000002;-982367525.0;-954470215.0;-199838.0;-4302.51958976668;-4317.3794606257015;2.869590845204584;9.62245394475758e-07;2750.0;-2749.9999990377546
0.32000000000000023;-999577604.0;-971658325.0;-221807.0;-4302.5195897692565;-4302.712039930279;-13.115969838821911;-6.441496225306764e-07;-5500.0;5499.99999935585
0.32400000000000023;-1016787683.0;-988873901.0;-216311.0;-4302.519589773549;-4314.045187018216;-1.4530627494978035;-1.0732037480920553e-06;-3000.0;2999.9999989267963
0.32800000000000024;-1033997762.0;-1006270752.0;-29539.0;-4302.519589776731;-4330.877262384165;26.58533261321827;-7.953531167004257e-07;-3916.6666666666665;3916.6666658713134
0.33200000000000024;-1051207841.0;-1023678589.0;168219.0;-4302.519589778226;-4352.638931074732;60.212481299948195;-3.738023224286735e-07;-2750.0;2749.9999996261977
0.33600000000000024;-1068417920.0;-1040872192.0;151743.0;-4302.519589778384;-4279.881115787145;-13.533893990156685;-3.956301952712238e-08;-3583.3333333333335;3583.3333332937705
0.34000000000000025;-1085628000.0;-1058005371.0;74843.0;-4302.51958977813;-4296.885047042017;-1.1439627362751708;6.366462912410498e-08;5916.666666666667;-5916.666666603002
0.34400000000000025;-1102838079.0;-1075259399.0;118792.0;-4302.519589777717;-4299.969093588866;4.577023810587889;1.0322764865122736e-07;2416.6666666666665;-2416.666666563439
0.34800000000000025;-1120048158.0;-1092420044.0;69357.0;-4302.519589777398;-4291.528009465127;-6.830160312839325;7.958078640513122e-08;3750.0;-3749.999999920419
0.35200000000000026;-1137258237.0;-1109415894.0;-144872.0;-4302.519589777208;-4259.143812525696;-52.0680972518976;4.75210981676355e-08;83.33333333333333;-83.33333328581223
0.35600000000000026;-1154468316.0;-1126763306.0;-7539.0;-4302.519589777208;-4321.065490213184;18.09356043585558;0.0;1250.0;-1250.0
0.36000000000000026;-1171678396.0;-1143901978.0;-78946.0;-4302.519589777303;-4305.158500324638;-2.097849452574337;-2.3646862246096134e-08;-583.3333333333334;583.3333333096865
0.36400000000000027;-1188888475.0;-1161090088.0;-100915.0;-4302.519589777303;-4296.359634429034;-12.214855348206584;0.0;-2500.0;2500.0
0.36800000000000027;-1206098554.0;-1178475952.0;74869.0;-4302.519589777303;-4340.552328368877;42.52487859158373;0.0;-1916.6666666666667;1916.6666666666667
0.3720000000000003;-1223308633.0;-1195729980.0;118818.0;-4302.5195897773665;-4310.921190638903;15.530680861608744;-1.5916157281026244e-08;-2833.3333333333335;2833.3333333174173
0.3760000000000003;-1240518712.0;-1212868652.0;47411.0;-4302.519589777176;-4286.714435115752;-12.960494661580924;4.75210981676355e-08;333.3333333333333;-333.3333332858122
0.3800000000000003;-1257728791.0;-1230078735.0;47415.0;-4302.519589777303;-4317.4729812727055;17.798291495419107;-3.1604940886609256e-08;3083.3333333333335;-3083.3333333649384
0.3840000000000003;-1274938837.0;-1247415161.0;173762.0;-4302.5110625738425;-4324.552084048979;32.458214271750876;2.131800865072364;250.0;-247.86819913492764
0.3880000000000003;-1292148627.0;-1264581299.0;129834.0;-4302.447401262407;-4280.720847403381;-14.00532147098329;15.915327858920136;-1833.3333333333333;1849.2486611922534
0.3920000000000003;-1309357494.0;-1281401367.0;-260043.0;-4302.21657736173;-4225.329610826597;-92.75884099604718;57.70597516925591;4166.666666666667;-4108.960691497411
0.3960000000000003;-1326563179.0;-1298638916.0;-231919.0;-4301.4209445681545;-4303.9282395776245;-12.343156630286103;198.90819839383767;5916.666666666667;-5717.758468272829
0.4000000000000003;-1343757597.0;-1315854492.0;-223954.0;-4298.604487825895;-4300.829182447591;-14.510531427038586;704.1141855647766;333.3333333333333;370.78085223144325
0.4040000000000003;-1360919713.0;-1333020630.0;-259053.0;-4290.528737839658;-4292.740744361997;-23.111361025878068;2018.9374965593743;-5000.0;7018.937496559374
0.4080000000000003;-1378010040.0;-1350269165.0;-192194.0;-4272.5814560393455;-4329.713008453182;22.762286637023863;4486.820450078085;-2666.6666666666665;7153.487116744751
0.4120000000000003;-1394969576.0;-1367698975.0;103774.0;-4239.883889831923;-4341.25404251079;64.02024263110525;8174.391551855706;-3250.0;11424.391551855706
0.4160000000000003;-1411721789.0;-1384898071.0;263979.0;-4188.053035256612;-4307.747124474577;63.863322682706894;12957.713643827674;-2166.6666666666665;15124.38031049434
0.4200000000000003;-1428176330.0;-1401806030.0;293836.0;-4113.635073500634;-4197.810352498329;-4.084840653589708;18604.490438994617;833.3333333333334;17771.157105661285
0.4240000000000003;-1444233972.0;-1418516235.0;368635.0;-4014.4102964992417;-4181.973503138139;45.240430523592295;24806.194250347973;14333.333333333334;10472.860917014637
0.4280000000000003;-1459791488.0;-1434814453.0;367932.0;-3889.378662840757;-4050.6384567597183;-2.015665791662741;31257.908414621168;14500.0;16757.908414621168
0.43200000000000033;-1474746080.0;-1450717163.0;408967.0;-3738.6479348454504;-3977.1973900413327;36.31680749067027;37682.681998826636;23083.333333333332;14599.348665493306
0.43600000000000033;-1489001306.0;-1466054077.0;424485.0;-3563.8062800036614;-3833.333019085385;28.453227498656815;43710.413710447254;22416.666666666668;21293.74704378059
0.44000000000000034;-1502474668.0;-1481022949.0;712519.0;-3368.3403394872807;-3720.9938154398205;93.53581697894106;48866.48512909517;29500.0;19366.485129095166
0.44400000000000034;-1515102924.0;-1494854736.0;594979.0;-3157.0638844070068;-3458.6132410127325;6.980429447170536;52819.1137700685;34083.333333333336;18735.780436735164
0.44800000000000034;-1526842780.0;-1508032837.0;630209.0;-2934.963933493791;-3278.9125717340003;31.007277246230842;55524.987728303924;44833.333333333336;10691.654394970592
0.45200000000000035;-1537668601.0;-1520469360.0;785760.0;-2706.45519174502;-3103.0163794591895;79.91930729857677;57127.18543719279;49666.666666666664;7460.518770526129
0.45600000000000035;-1547568564.0;-1532065430.0;999169.0;-2474.990603927764;-2873.2205162890546;87.50550154967823;57866.14695431399;48583.333333333336;9282.813620980654
0.46000000000000035;-1556539826.0;-1542623291.0;1092942.0;-2242.81539071241;-2633.885970113992;83.44047239565771;58043.803303838446;51416.666666666664;6627.13663717178
0.46400000000000036;-1564583925.0;-1552148438.0;1080916.0;-2011.0246428687046;-2367.2752758663605;47.83723842152949;57947.686960926374;56916.666666666664;1031.0202942597116
0.46800000000000036;-1571704225.0;-1560690308.0;1013688.0;-1780.0748749956429;-2135.4065165259317;43.953413963176445;57737.44196826544;64083.333333333336;-6345.891365067892
0.47200000000000036;-1577907382.0;-1568364258.0;1004379.0;-1550.789203158875;-1913.9984355818126;53.4463581714906;57321.41795919199;60833.333333333336;-3511.9153741413456
0.47600000000000037;-1583208268.0;-1575230713.0;1108754.0;-1325.2212995799528;-1703.3281924550133;79.33352245790093;56391.97589473054;58083.333333333336;-1691.3574386028004
0.48000000000000037;-1587634753.0;-1581146851.0;1174097.0;-1106.6213586924277;-1468.0329427640002;75.78023814226276;54649.98522188125;54166.666666666664;483.31855521458783
0.4840000000000004;-1591230780.0;-1586140137.0;1207897.0;-899.0066934978177;-1232.849046122185;65.45134054503751;51903.666298652526;55250.0;-3346.3337013474757
0.4880000000000004;-1594058353.0;-1590270996.0;1236411.0;-706.8932225992611;-1024.9097855410669;73.50819859052694;48028.36772463914;57000.0;-8971.63227536086
0.4920000000000004;-1596197241.0;-1593533936.0;1203138.0;-534.7219275790968;-810.5410658990731;58.67614966068595;43042.82375504107;56250.0;-13207.17624495893
