Zeit[sec];Sollposition[°];Istposition[°];Positionsschleppfehler[°];Sollgeschwindigkeit[°/s];Istgeschwindigkeit[°/s];Geschwindigkeitsdifferenz[°/s];Sollbeschleunigung[°/s*s];Istbeschleunigung[°/s*s];Beschleunigungsdifferenz[°/s*s]
0.0;9817499999.0;9817503662.0;-3663.0;0.0;2.4517772945016625;-2.6715572945519988;0.0;0.0;0.0
0.004;9817499999.0;9817492676.0;7323.0;0.0;-2.474634685330093;2.9140146853355913;0.0;0.0;0.0
0.008;9817499999.0;9817487183.0;12816.0;0.0;-8.19400445152074;8.962964451520092;0.0;0.0;0.0
0.012;9817499999.0;9817503662.0;-3663.0;0.0;-0.6023047847002745;0.3825247846499384;0.0;0.0;0.0
0.016;9817499999.0;9817503662.0;-3663.0;0.0;2.219482112325728;-2.4392621123760643;0.0;0.0;0.0
0.02;9817499999.0;9817492676.0;7323.0;0.0;-3.2232875493466855;3.6626675493521836;0.0;0.0;0.0
0.024;9817499999.0;9817492676.0;7323.0;0.0;-3.75687609064579;4.196256090651288;0.0;0.0;0.0
0.028;9817499999.0;9817509155.0;-9156.0;0.0;3.613526091262698;-4.16288609123876;0.0;0.0;0.0
0.032;9817499999.0;9817503662.0;-3663.0;0.0;0.613121833793819;-0.8329018338441552;0.0;0.0;0.0
0.036000000000000004;9817499826.0;9817514648.0;-14649.0;-0.04345656269991234;7.661907775692642;-8.540847775730684;-10.864140674978085;0.0;-10.864140674978085
0.04000000000000001;9817498093.0;9817492676.0;7253.0;-0.43307388389531887;-1.999867881640792;2.417818033526624;-97.40433029885163;0.0;-97.40433029885163
0.04400000000000001;9817489579.0;9817487183.0;11956.0;-2.1286459573139402;-5.622174410097301;6.141855295555489;-423.89301835465534;0.0;-423.89301835465534
0.048000000000000015;9817461435.0;9817492676.0;2051.0;-7.0359006999738;-3.9535156376734375;2.973516833932923;-1226.8136856649649;0.0;-1226.8136856649649
0.05200000000000002;9817390040.0;9817503662.0;-25192.0;-17.848910442607586;6.1319255675897;-11.707806361946606;-2703.2524356584468;-166.66666666666666;-2536.58576899178
0.05600000000000002;9817240717.0;9817470703.0;-37411.0;-37.330745750304814;-4.875736080788076;-8.663260583223646;-4870.458826924307;-166.66666666666666;-4703.792160257641
0.060000000000000026;9816903377.0;9817421265.0;-90012.0;-84.33489394998466;-17.36752459409088;-13.542991665356265;-11751.037049919962;-500.0;-11251.037049919962
0.06400000000000003;9816449146.0;9817278442.0;-170601.0;-113.55769446621336;-37.58475588601828;-28.50430880683924;-7305.700129057175;-1916.6666666666667;-5389.033462390509
0.06800000000000003;9815789500.0;9816932373.0;-207116.0;-164.91160756896556;-95.96221960084141;-12.110603216743385;-12838.47827568805;-4500.0;-8338.47827568805
0.07200000000000004;9814873799.0;9816317139.0;-126872.0;-228.92524119805864;-147.37271728090943;6.012906021158699;-16003.40840727327;-10083.333333333334;-5920.0750739399355
0.07600000000000004;9813651154.0;9815630493.0;-200190.0;-305.66114099709347;-178.99503944036366;-23.00747181498747;-19183.974949758707;-11166.666666666666;-8017.30828309204
0.08000000000000004;9812075929.0;9814520874.0;-126470.0;-393.806331519406;-276.5525516727567;9.989605087274697;-22036.297630578134;-14000.0;-8036.297630578133
0.08400000000000005;9810110192.0;9813273926.0;-240161.0;-491.43411635108856;-314.83856348127125;-39.73080387652948;-24406.94620792064;-14166.666666666666;-10240.279541253974
0.08800000000000005;9807724691.0;9811571045.0;-265271.0;-596.3753282714858;-433.7023344543651;-14.211672590970863;-26235.30298009932;-16833.333333333332;-9401.969646765987
0.09200000000000005;9804899452.0;9809604492.0;-428597.0;-706.309534345274;-491.8645838139877;-66.32086555534613;-27483.551518447028;-20333.333333333332;-7150.2181851136975
0.09600000000000006;9801623412.0;9807149048.0;-530544.0;-819.0101786925874;-622.9290058580563;-48.251267486183565;-28175.161086828353;-20583.333333333332;-7591.827753495021
0.10000000000000006;9797892418.0;9804226685.0;-609578.0;-932.7484314780064;-733.2038198678717;-53.720293274816754;-28434.56319635476;-26583.333333333332;-1851.2298630214268
0.10400000000000006;9793706407.0;9800787964.0;-624638.0;-1046.5025414687402;-865.5939967791438;-35.3295466447405;-28438.52749768345;-27083.333333333332;-1355.1941643501202
0.10800000000000007;9789066924.0;9796893311.0;-638721.0;-1159.870858204587;-975.1481923003421;-40.35879130606645;-28342.079183961687;-31500.0;3157.920816038313
0.11200000000000007;9783975572.0;9792608643.0;-717192.0;-1272.8377372128243;-1077.8651226675959;-55.95117701864774;-28241.71975205934;-28416.666666666668;174.94691460732884
0.11600000000000008;9778433392.0;9787736206.0;-660740.0;-1385.544917408633;-1221.7978703461365;-21.84272279694369;-28176.795048952157;-29333.333333333332;1156.538284381174
0.12000000000000008;9772440819.0;9782462769.0;-654754.0;-1498.1433832951875;-1311.2159078749419;-44.931789929148636;-28149.616471638637;-29666.666666666668;1517.0501950280304
0.12400000000000008;9765997893.0;9776804810.0;-714907.0;-1610.731245861936;-1429.5716297684164;-42.85084637927275;-28146.965641687133;-27833.333333333332;-313.63230835379954
0.12800000000000009;9759104497.0;9770619507.0;-698096.0;-1723.3490762991585;-1542.2333107374236;-41.77540424412268;-28154.45760930561;-28833.333333333332;678.8757240277228
0.1320000000000001;9751760730.0;9764005737.0;-703217.0;-1835.9415735915795;-1662.6003932352812;-34.315388234145075;-28148.124323105265;-26416.666666666668;-1731.4576564385966
0.1360000000000001;9743968054.0;9756963501.0;-730303.0;-1948.1688130069813;-1761.738451895766;-49.410100221903576;-28056.80985385044;-29916.666666666668;1859.8568128162292
0.1400000000000001;9735731186.0;9749382935.0;-668850.0;-2059.2171041888173;-1897.612724654846;-22.296474150467247;-27762.072795459004;-27916.666666666668;154.5938712076627
0.1440000000000001;9727059867.0;9741500244.0;-752320.0;-2167.8295494083404;-1976.5269982028456;-60.15234564719299;-27153.111304880782;-28416.666666666668;1263.5553617858868
0.1480000000000001;9717970609.0;9733051758.0;-710353.0;-2272.314395284602;-2126.098319972247;-18.152428095561845;-26121.211469065427;-26666.666666666668;545.455197601239
0.1520000000000001;9708488760.0;9724257202.0;-750276.0;-2370.4622058764894;-2184.211591032721;-69.4247261437622;-24536.952647971815;-29166.666666666668;4629.714018694852
0.1560000000000001;9698649454.0;9714918823.0;-654363.0;-2459.8262383332003;-2343.546685005717;-6.331347725178603;-22341.008114177726;-26166.666666666668;3825.6585524889424
0.16000000000000011;9688496182.0;9705333252.0;-690066.0;-2538.318017307497;-2390.8688083708957;-55.8537152339909;-19622.944743574182;-28916.666666666668;9293.721923092487
0.16400000000000012;9678077835.0;9695247803.0;-566311.0;-2604.5865632631503;-2533.866760516219;9.464715631424951;-16567.13648891332;-22333.333333333332;5766.196844420012
0.16800000000000012;9667445575.0;9685030518.0;-605557.0;-2658.064781167362;-2561.395090949766;-39.070876615735415;-13369.554476052941;-25000.0;11630.445523947059
0.17200000000000013;9656649763.0;9674511108.0;-587754.0;-2698.9529198036307;-2637.5176659591793;-23.14912284435968;-10222.034659067162;-17166.666666666668;6944.632007599505
0.17600000000000013;9645737079.0;9663717041.0;-489539.0;-2728.1708475894225;-2710.7956062565745;7.460325930091585;-7304.481946447936;-18250.0;10945.518053552063
0.18000000000000013;9634748535.0;9652846069.0;-459759.0;-2747.1358747690333;-2734.9545448447243;-2.928787858506439;-4741.256794902711;-13250.0;8508.74320509729
0.18400000000000014;9623717913.0;9641837769.0;-393535.0;-2757.655324651103;-2747.705020873457;-11.42606486851082;-2629.8624705174234;-13166.666666666666;10536.804196149242
0.18800000000000014;9612669892.0;9630780029.0;-340578.0;-2762.005206278971;-2780.1897320652606;8.559502990522105;-1087.470406966986;-6916.666666666667;5829.196259699681
0.19200000000000014;9601619243.0;9619722290.0;-320113.0;-2762.66213699839;-2765.1338200779855;-13.391307270067045;-164.23267985476286;-5583.333333333333;5419.10065347857
0.19600000000000015;9590572383.0;9608648071.0;-294855.0;-2761.7148399010366;-2760.4311764364393;-19.500305020595533;236.82427433834619;-1916.6666666666667;2153.490941005013
0.20000000000000015;9579530381.0;9597480469.0;-176384.0;-2760.500451171188;-2792.8313094176874;19.965570120207758;303.59718246211287;-2250.0;2553.597182462113
0.20400000000000015;9568491880.0;9586532593.0;-273465.0;-2759.6252059520766;-2746.6978488933296;-30.948955420121365;218.81130477788702;833.3333333333334;-614.5220285554464
0.20800000000000016;9557455083.0;9575436401.0;-217915.0;-2759.1988841302987;-2758.0982221938743;-15.137223482574427;106.58045544448669;416.6666666666667;-310.08621122218
0.21200000000000016;9546418691.0;9564340210.0;-159570.0;-2759.0979417458307;-2785.0848724520056;16.04936805106263;25.23559611699966;1083.3333333333333;-1058.0977372163336
0.21600000000000016;9535382076.0;9553298950.0;-154956.0;-2759.1536214045454;-2760.7938177455812;-7.664902285919652;-13.919914678695022;-583.3333333333334;569.4134186546383
0.22000000000000017;9524345104.0;9542296143.0;-188632.0;-2759.2428312568263;-2734.8879029468967;-35.55062637286301;-22.302463070218437;-166.66666666666666;144.36420359644822
0.22400000000000017;9513307877.0;9531260376.0;-189620.0;-2759.306731726035;-2760.142032353707;-10.423833115373782;-15.975117302218678;1750.0;-1765.9751173022187
0.22800000000000017;9502270542.0;9520323486.0;-289801.0;-2759.3336567528168;-2736.554492551826;-40.10121152851525;-6.731256695388765;1833.3333333333333;-1840.064590028722
0.23200000000000018;9491233203.0;9509337158.0;-340742.0;-2759.3344188086194;-2739.4204328765422;-40.3411197851442;-0.19051395065616816;1916.6666666666667;-1916.857180617323
0.23600000000000018;9480195907.0;9498251953.0;-292873.0;-2759.324060015931;-2765.8415135261494;-11.064667606057355;2.58969817207344;-1333.3333333333333;1335.9230315054067
0.24000000000000019;9469158654.0;9487238159.0;-316400.0;-2759.313159604116;-2754.045427519158;-24.268879724807448;2.725102953718306;-1083.3333333333333;1086.0584362870516
0.2440000000000002;9458121428.0;9476152954.0;-268475.0;-2759.3062478642482;-2752.146937376313;-23.281361492725864;1.7279349669934163;-2250.0;2251.7279349669934
0.2480000000000002;9447084213.0;9465062256.0;-215019.0;-2759.3036105266597;-2774.8991354900672;2.6875124132607198;0.6593343971417198;-250.0;250.65933439714172
0.25200000000000017;9436046998.0;9454042969.0;-232954.0;-2759.303703316001;-2762.64729726354;-10.635185436085976;-0.02319733528111101;-83.33333333333333;83.31013599805222
0.25600000000000017;9425009778.0;9443073120.0;-300320.0;-2759.3048464283743;-2742.0039492214246;-35.318913547942884;-0.2857780933709364;1500.0;-1500.285778093371
0.2600000000000002;9413972553.0;9431960449.0;-224866.0;-2759.305959792601;-2770.6353281255588;-2.1607878729751064;-0.27834105662805086;0.0;-0.27834105662805086
0.2640000000000002;9402935326.0;9420935669.0;-237308.0;-2759.30662409342;-2773.0661322576702;-0.4776289043597899;-0.1660752047882852;500.0;-500.1660752047883
0.2680000000000002;9391898099.0;9409877930.0;-216795.0;-2759.306847391164;-2760.66579852891;-11.648118124921439;-0.055824436003604205;-1583.3333333333333;1583.2775088973297
0.2720000000000002;9380860871.0;9398715820.0;-91912.0;-2759.306805066117;-2781.6930423309727;16.871613595869803;0.01058126179032115;-1416.6666666666667;1416.677247928457
0.2760000000000002;9369823644.0;9387663574.0;-76893.0;-2759.3066706928985;-2773.1769313622713;9.256522060674797;0.03359330457897158;-1083.3333333333333;1083.3669266379122
0.2800000000000002;9358786417.0;9376583862.0;-34409.0;-2759.3065492945584;-2764.865906501107;3.4946144639084196;0.03034958501757501;-250.0;250.03034958501758
0.2840000000000002;9347749190.0;9365432739.0;79487.0;-2759.3064775398598;-2781.4694687010347;26.93206535332547;0.01793867465949006;-166.66666666666666;166.68460534132615
0.2880000000000002;9336711964.0;9354336548.0;138451.0;-2759.3064505372504;-2781.1531539201587;30.15369236381366;0.006750652346454444;-166.66666666666666;166.6734173190131
0.2920000000000002;9325674738.0;9343306274.0;131499.0;-2759.3064487795614;-2755.871188840948;4.454661586747534;0.00043942225147475256;83.33333333333333;-83.33289391108185
0.2960000000000002;9314637511.0;9332138672.0;261875.0;-2759.3064545740867;-2782.2774755148293;38.68352551618318;-0.001448631337552797;333.3333333333333;-333.33478196467087
0.3000000000000002;9303600285.0;9321124878.0;238442.0;-2759.3064578935987;-2754.5838214509936;9.58389036355402;-0.000829877990327077;166.66666666666666;-166.66749654465698
0.3040000000000002;9292563059.0;9310072632.0;253462.0;-2759.3064556891068;-2765.619719705939;21.520983849642562;0.000551122980141372;1416.6666666666667;-1416.6661155436866
0.3080000000000002;9281525832.0;9298992920.0;295948.0;-2759.3064488902683;-2758.1878105212822;16.638233521176062;0.0016997096281556878;83.33333333333333;-83.33163362370517
0.3120000000000002;9270488606.0;9287990112.0;261529.0;-2759.30643964764;-2755.9891997457967;12.374486739415715;0.0023106570097297663;1750.0;-1749.9976893429903
0.3160000000000002;9259451380.0;9276932373.0;282042.0;-2759.306429758937;-2763.287358877249;20.903433611681066;0.0024721757654333487;-583.3333333333334;583.3358055090988
0.32000000000000023;9248414154.0;9265902100.0;275089.0;-2759.3064201765233;-2751.58032776922;8.779231988111405;0.0023956034738148446;916.6666666666666;-916.6642710631928
0.32400000000000023;9237376928.0;9254877319.0;262644.0;-2759.3064111419685;-2769.203044640623;25.655258622932706;0.002258638687635539;333.3333333333333;-333.3310746946457
0.32800000000000024;9226339701.0;9243901978.0;200759.0;-2759.306402522991;-2746.419143101707;-0.8417335489580182;0.002154744379367912;333.3333333333333;-333.33117858895395
0.33200000000000024;9215302475.0;9232855225.0;210285.0;-2759.3063940871057;-2743.059371956438;-3.629935821120853;0.0021089713300170843;83.33333333333333;-83.33122436200331
0.33600000000000024;9204265249.0;9221824951.0;203333.0;-2759.306385649518;-2768.7976274087355;21.691208179996465;0.002109396973537514;416.6666666666667;-416.66455726969315
0.34000000000000025;9193228023.0;9210882568.0;108490.0;-2759.3063771273382;-2736.128563247785;-16.66842754338495;0.0021305448854036513;83.33333333333333;-83.33120278844792
0.34400000000000025;9182190797.0;9199868774.0;85058.0;-2759.3063685029665;-2745.227921864681;-8.974980455429431;0.002156092932636966;1333.3333333333333;-1333.3311772404006
0.34800000000000025;9171153571.0;9188876953.0;39653.0;-2759.3063597903138;-2756.7381054722296;-0.1890882856528151;0.0021781631858175388;83.33333333333333;-83.33115517014751
0.35200000000000026;9160116345.0;9177951050.0;-71670.0;-2759.306351020037;-2746.5370465113224;-17.06951858777211;0.0021925692408331088;1500.0;-1499.9978074307592
0.35600000000000026;9149079119.0;9166915283.0;-73129.0;-2759.3063422040573;-2743.0916851507127;-20.602411213335927;0.002203994881710969;-1166.6666666666667;1166.6688706615485
0.36000000000000026;9138041894.0;9155917969.0;-113041.0;-2759.3063333596906;-2759.79543536301;-6.2933722129587295;0.002211091668868903;83.33333333333333;-83.33112224166446
0.36400000000000027;9127004668.0;9144871216.0;-103514.0;-2759.3063244798423;-2765.373123620354;-0.14405512873372572;0.002219962084382132;-1916.6666666666667;1916.6688866287511
0.36800000000000027;9115967442.0;9133873901.0;-143424.0;-2759.3063155696195;-2753.3528234953283;-14.558946395385192;0.0022275556830209098;500.0;-499.997772444317
0.3720000000000003;9104930216.0;9122821655.0;-128404.0;-2759.3063066222107;-2775.8727489422263;8.862187943036133;0.0022368521968019195;-833.3333333333334;833.3355701855302
0.3760000000000003;9093892990.0;9111829834.0;-173809.0;-2759.3062976418737;-2763.0633230177314;-6.671529056507552;0.0022450842607213417;416.6666666666667;-416.66442158240596
0.3800000000000003;9082855765.0;9100744629.0;-125830.0;-2759.306288622079;-2767.7743823862074;0.9182792721635451;0.002254948640256771;-1166.6666666666667;1166.668921615307
0.3840000000000003;9071818539.0;9089703369.0;-121796.0;-2759.3062795670858;-2772.1355696569085;5.5215155385049;0.002263748342556937;-583.3333333333334;583.3355970816759
0.3880000000000003;9060781314.0;9078634644.0;-90296.0;-2759.306270478313;-2771.7498747962563;7.0258297114755806;0.002272193228236574;-1000.0;1000.0022721932282
0.3920000000000003;9049744088.0;9067571411.0;-64289.0;-2759.306261352069;-2747.7732629882544;-15.390353028373283;0.0022815609099779977;-916.6666666666666;916.6689482275766
0.3960000000000003;9038706862.0;9056458740.0;11157.0;-2759.3062521948846;-2773.256475019619;14.619628106494929;0.0022892961624165764;-333.3333333333333;333.33562262949573
0.4000000000000003;9027669637.0;9045477905.0;-45234.0;-2759.306243002217;-2754.4375290290864;-7.582768745911835;0.0022981669189903187;833.3333333333334;-833.3310351664144
0.4040000000000003;9016632411.0;9034420166.0;-24721.0;-2759.3062337797437;-2746.7479313114136;-14.041577292337934;0.0023056182953951065;916.6666666666666;-916.6643610483712
0.4080000000000003;9005595186.0;9023389893.0;-31673.0;-2759.3062245217866;-2752.7277827029525;-8.478836696589497;0.0023144892793425242;666.6666666666666;-666.6643521773873
0.4120000000000003;8994557961.0;9012365112.0;-44118.0;-2759.306215234308;-2771.4957597539874;9.542449590820524;0.002321869601473736;1000.0;-999.9976781303985
0.4160000000000003;8983520735.0;9001290894.0;-7125.0;-2759.306205915037;-2753.1810800878557;-6.552640805896772;0.0023298177893593675;-1166.6666666666667;1166.668996484456
0.4200000000000003;8972483510.0;8990271606.0;-25062.0;-2759.306196567947;-2757.7830575835856;-3.026874010233314;0.0023367724679701496;416.6666666666667;-416.6643298941987
0.4240000000000003;8961446285.0;8979213867.0;-4549.0;-2759.3061871876453;-2771.5977707654315;12.018628501833518;0.00234507547247631;-916.6666666666666;916.6690117421391
0.4280000000000003;8950409060.0;8968178101.0;-6008.0;-2759.30617777924;-2741.079280395649;-18.587392507995446;0.002352101319047506;333.3333333333333;-333.33098123201427
0.43200000000000033;8939371834.0;8957114868.0;20000.0;-2759.3061683410297;-2763.2243488889935;5.11816537671757;0.002359552581765456;-250.0;250.00235955258177
0.43600000000000033;8928334609.0;8946068115.0;29528.0;-2759.306158876136;-2763.3916263437422;5.857132251379426;0.0023662233843424474;-416.6666666666667;416.669032890051
0.44000000000000034;8917297384.0;8935065308.0;-4891.0;-2759.306149382004;-2742.366310313955;-17.23331432964278;0.0023735329932605964;1166.6666666666667;-1166.6642931336735
0.44400000000000034;8906260159.0;8924051514.0;-28322.0;-2759.306139860338;-2746.612777563371;-14.39269760394609;0.002380416503910965;250.0;-249.9976195834961
0.44800000000000034;8895222934.0;8913026733.0;-40766.0;-2759.3061303145423;-2763.3828515759037;1.6307459134127384;0.002386448954894149;1333.3333333333333;-1333.3309468843784
0.45200000000000035;8884185709.0;8901974487.0;-25745.0;-2759.306120738942;-2750.829695958212;-10.02114017315398;0.0023939001039252616;-750.0;750.0023939001039
0.45600000000000035;8873148484.0;8890894775.0;16742.0;-2759.3061111403476;-2762.212289505303;3.910682931372776;0.0023996485651878174;-1083.3333333333333;1083.3357329818984
0.46000000000000035;8862111259.0;8879831543.0;42749.0;-2759.3061015150706;-2784.9412554123255;28.200078423047216;0.002406319254077971;-583.3333333333334;583.3357396525874
0.46400000000000036;8851074034.0;8868933105.0;-96038.0;-2759.3060918685037;-2715.741663458027;-49.326723922295514;0.002411641730759584;583.3333333333334;-583.3309216916026
0.46800000000000036;8840036809.0;8857891846.0;-92004.0;-2759.3060821941176;-2752.4286532132105;-12.39768453356146;0.0024185965230572037;2333.3333333333335;-2333.3309147368104
0.47200000000000036;8828999584.0;8846883545.0;-120928.0;-2759.3060724981583;-2764.6236770955547;-1.9380909937199249;0.002423989826638717;333.3333333333333;-333.3309093435067
0.47600000000000037;8817962360.0;8835875244.0;-149852.0;-2759.306062778638;-2755.6248902954385;-12.672308111033999;0.002429880055387912;666.6666666666666;-666.6642367866112
0.48000000000000037;8806925135.0;8824817505.0;-129337.0;-2759.3060530378284;-2755.315152553171;-11.751136148206115;0.002435202418382687;-2500.0;2500.0024352024184
