Zeit[sec];Sollposition[°];Istposition[°];Positionsschleppfehler[°];Sollgeschwindigkeit[°/s];Istgeschwindigkeit[°/s];Geschwindigkeitsdifferenz[°/s];Sollbeschleunigung[°/s*s];Istbeschleunigung[°/s*s];Beschleunigungsdifferenz[°/s*s]
0.0;0.0;-5493.0;5493.0;0.0;-0.3043349116684221;0.6339149116684222;0.0;0.0;0.0
0.004;0.0;-5493.0;5493.0;0.0;-0.17681688004780352;0.5063968800478036;0.0;0.0;0.0
0.008;0.0;-5493.0;5493.0;0.0;-0.11937612182610284;0.4489561218261029;0.0;0.0;0.0
0.012;0.0;-5493.0;5493.0;0.0;3.21278348870439;-2.88320348870439;0.0;-83.33333333333333;83.33333333333333
0.016;0.0;-5493.0;5493.0;0.0;0.35806524491074115;-0.028485244910741114;0.0;83.33333333333333;-83.33333333333333
0.02;0.0;-5493.0;5493.0;0.0;-0.2941547067642755;0.6237347067642756;0.0;0.0;0.0
0.024;0.0;-5493.0;5493.0;0.0;-0.032783590145276896;0.3623635901452769;0.0;83.33333333333333;-83.33333333333333
0.028;0.0;-5493.0;5493.0;0.0;-0.0036537364798135672;0.3332337364798136;0.0;-83.33333333333333;83.33333333333333
0.032;0.0;-5493.0;5493.0;0.0;-0.11031912344270363;0.43989912344270365;0.0;0.0;0.0
0.036000000000000004;-85.0;-5493.0;5493.0;-0.02125049593274787;1.1122247590503356;-0.7826447590503356;-5.312623983186968;0.0;-5.312623983186968
0.04000000000000001;-932.0;-10986.0;10952.0;-0.21177549091194298;-0.7506395781273112;1.3993340885289758;-47.631248744798775;0.0;-47.631248744798775
0.04400000000000001;-5095.0;-5493.0;5073.0;-1.0409194813775815;0.09281021707037207;0.11490361806528174;-207.28599761640965;0.0;-207.28599761640965
0.048000000000000015;-18858.0;-16479.0;13901.0;-3.4405938113782115;-5.272552686649431;5.56721091628517;-599.9185825001575;0.0;-599.9185825001575
0.05200000000000002;-53771.0;0.0;-10527.0;-8.728214542150223;4.746143828118891;-7.365258420861181;-1321.9051826930029;-83.33333333333333;-1238.5718493596696
0.05600000000000002;-126790.0;-5493.0;-27127.0;-18.254938247438197;0.03669022063896332;-7.187302440917011;-2381.6809263219934;83.33333333333333;-2465.014259655327
0.060000000000000026;-258676.0;-5493.0;-77024.0;-32.971325031211;-0.21869451178183574;-16.87717497173781;-3679.096695943201;0.0;-3679.096695943201
0.06400000000000003;-471917.0;-5493.0;-173160.0;-53.310392252290434;-0.20395372957124774;-34.219581287378695;-5084.766805269858;83.33333333333333;-5168.100138603191
0.06800000000000003;-789688.0;-5493.0;-336957.0;-79.44258469789442;-0.1813884425526801;-60.9852501150798;-6533.048111400996;-83.33333333333333;-6449.714778067662
0.07200000000000004;-1235575.0;-5493.0;-591166.0;-111.47193476051835;2.1187233869489632;-101.1409074064159;-8007.337515655983;0.0;-8007.337515655983
0.07600000000000004;-1832844.0;-21973.0;-942640.0;-149.31716989426923;-5.473715617413856;-143.07328760660525;-9461.308783437718;0.0;-9461.308783437718
0.08000000000000004;-2602944.0;-76904.0;-1392866.0;-192.52507155215912;-16.39023581456746;-193.47103137166098;-10801.975414472472;-666.6666666666666;-10135.308747805806
0.08400000000000005;-3564140.0;-197754.0;-1936923.0;-240.29892490066698;-35.99591715947425;-246.44614119407308;-11943.463337126965;-1583.3333333333333;-10360.13000379363
0.08800000000000005;-4730673.0;-499878.0;-2479653.0;-291.63334703042176;-84.9793601649735;-275.0133064746337;-12833.605532438696;-4166.666666666667;-8666.93886577203
0.09200000000000005;-6112302.0;-1510620.0;-2510400.0;-345.40706190872174;-257.70670767299686;-153.2895885798082;-13443.428719574997;-12666.666666666666;-776.7620529083299
0.09600000000000006;-7714435.0;-2850952.0;-2420680.0;-400.53330719969046;-324.56722622530356;-133.32657091040267;-13781.561322742178;-24166.666666666668;10385.10534392449
0.10000000000000006;-9539103.0;-4257202.0;-2482225.0;-456.16686396933966;-357.2918749105895;-158.59030154780362;-13908.389192412302;-24000.0;10091.610807587698
0.10400000000000006;-11586336.0;-6069946.0;-2358554.0;-511.8082512524701;-452.75137449373574;-111.03000334729415;-13910.346820782606;-20250.0;6339.653179217393
0.10800000000000007;-13855381.0;-8129883.0;-2210225.0;-567.2612205704252;-517.4126647794664;-93.10266197926092;-13863.24232948877;-14750.0;886.7576705112299
0.11200000000000007;-16345453.0;-10574341.0;-1899640.0;-622.5181536171425;-617.4016898979502;-30.045173482831274;-13814.233261679334;-18416.666666666668;4602.433404987334
0.11600000000000008;-19056047.0;-13260498.0;-1568862.0;-677.6482707339565;-670.5328737398684;-12.443657651904118;-13782.529279203487;-20416.666666666668;6634.137387463181
0.12000000000000008;-21986948.0;-16001587.0;-1403984.0;-732.7252773797447;-686.8290285216301;-41.46262403217838;-13769.251661447071;-16083.333333333334;2314.081671886262
0.12400000000000008;-25138136.0;-19011841.0;-1190380.0;-787.7970635356354;-758.3095908107705;-12.275624450030705;-13767.946538972667;-12916.666666666666;-851.2798723059998
0.12800000000000009;-28509670.0;-22263794.0;-955378.0;-842.8834471186167;-816.1848425096019;4.62449925152066;-13771.59589574532;-11416.666666666666;-2354.929229078655
0.1320000000000001;-32101614.0;-25724487.0;-731946.0;-897.9859144596305;-860.3899681395574;7.157940485020617;-13775.616835253459;-13750.0;-25.616835253458703
0.1360000000000001;-35914008.0;-29256592.0;-657472.0;-953.0984136844395;-884.6655641185672;-19.19069854590225;-13778.124806202242;-13250.0;-528.1248062022428
0.1400000000000001;-39946866.0;-32964478.0;-627644.0;-1008.2144406325343;-931.5670404496633;-25.605892800227025;-13779.006737023707;-9666.666666666666;-4112.3400703570405
0.1440000000000001;-44200186.0;-36930542.0;-560093.0;-1063.3299466173307;-995.6179518521037;-12.61576052918906;-13778.876496199104;-9500.0;-4278.876496199104
0.1480000000000001;-48673960.0;-41072388.0;-537223.0;-1118.443488255098;-1038.8278895799413;-23.149422525384807;-13778.385409441797;-12000.0;-1778.3854094417961
0.1520000000000001;-53368181.0;-45472412.0;-476634.0;-1173.5552444925422;-1099.0929868266103;-14.36371548312718;-13777.939059361073;-13916.666666666666;138.72760730559185
0.1560000000000001;-58282845.0;-50169067.0;-339865.0;-1228.6659793997185;-1170.6941294216801;10.330721847660698;-13777.683726794066;-15083.333333333334;1305.6496065392676
0.16000000000000011;-63417951.0;-55052490.0;-236773.0;-1283.7763950801304;-1218.8579414636029;9.568692132301976;-13777.60392010299;-15083.333333333334;1305.7294132303437
0.16400000000000012;-68773499.0;-60155640.0;-134397.0;-1338.886895861381;-1280.083640826761;21.826337172350577;-13777.625195312623;-14750.0;972.3748046873766
0.16800000000000012;-74349490.0;-65445557.0;-65696.0;-1393.9976098140476;-1323.700504182969;14.45480923652508;-13777.678488166657;-13583.333333333334;-194.34515483332325
0.17200000000000013;-80145924.0;-70900269.0;-52643.0;-1449.1085049438393;-1362.546204824676;-1.0268949235169202;-13777.723782447936;-12166.666666666666;-1611.0571157812697
0.17600000000000013;-86162802.0;-76492310.0;-122704.0;-1504.2194979265475;-1405.8266332313026;-17.060911054404414;-13777.74824567706;-11083.333333333334;-2694.414912343726
0.18000000000000013;-92400125.0;-82249146.0;-248413.0;-1559.3305174710792;-1436.9767279798366;-48.56428917123003;-13777.754886132925;-10083.333333333334;-3694.421552799591
0.18400000000000014;-98857891.0;-88176270.0;-424278.0;-1614.4415248762807;-1484.4375005833838;-66.76641950838189;-13777.751851300365;-9500.0;-4277.751851300365
0.18800000000000014;-105536101.0;-94465942.0;-458039.0;-1669.552509506945;-1576.7174946296116;-31.62310003799621;-13777.746157666059;-12166.666666666666;-1611.0794909993924
0.19200000000000014;-112434756.0;-101140137.0;-327721.0;-1724.6634760420893;-1661.3148374537227;5.682324339533125;-13777.741633786092;-17083.333333333332;3305.5916995472394
0.19600000000000015;-119553854.0;-107902222.0;-329958.0;-1779.7744334225786;-1686.73883958998;-24.138871113724917;-13777.739345122314;-18500.0;4722.260654877687
0.20000000000000015;-126893396.0;-114768677.0;-448268.0;-1834.885388789085;-1722.1713100054342;-50.91596370976754;-13777.738841626615;-14666.666666666666;888.9278250400512
0.20400000000000015;-134453381.0;-122019653.0;-402501.0;-1889.9963457737301;-1815.1590487734165;-10.293161577401634;-13777.739246161274;-11250.0;-2527.739246161275
0.20800000000000016;-142233811.0;-129572754.0;-275053.0;-1945.1073051914946;-1881.838257619921;8.921971249228818;-13777.739854441108;-14583.333333333334;805.5934788922254
0.21200000000000016;-150234684.0;-137345581.0;-148322.0;-2000.2182664166091;-1943.0611267738816;22.637742463330596;-13777.740306278645;-17833.333333333332;4055.5930270546874
0.21600000000000016;-158455945.0;-145261230.0;-99214.0;-2055.3150994623584;-1963.9264315775742;-8.661432853070437;-13774.208261437308;-17416.666666666668;3642.458405229359
0.22000000000000017;-166897228.0;-153204346.0;-243059.0;-2110.3205789513813;-1999.5822979519871;-36.741626090817135;-13751.369872255736;-9250.0;-4501.3698722557365
0.22400000000000017;-175557425.0;-161427612.0;-326998.0;-2165.0490805079257;-2057.1007531060213;-39.32020650699178;-13682.125389136105;-9333.333333333334;-4348.79205580277
0.22800000000000017;-184434119.0;-169832153.0;-449247.0;-2219.1735237127905;-2106.7643922536517;-51.88770470067993;-13531.110801216186;-8750.0;-4781.110801216187
0.23200000000000018;-193522499.0;-178544312.0;-481840.0;-2272.0948630612484;-2178.8340045586815;-36.264297171738235;-13230.33483711447;-14583.333333333334;1352.9984962188646
0.23600000000000018;-202813724.0;-187503662.0;-481846.0;-2322.8061989851835;-2238.2895002331084;-30.46013222601232;-12677.833980983793;-15416.666666666666;2738.8326856828744
0.24000000000000019;-212293856.0;-196726685.0;-426387.0;-2370.032708620247;-2321.5132376102447;4.038988192524812;-11806.62740876585;-15583.333333333334;3776.7059245674855
0.2440000000000002;-221944171.0;-206422119.0;-95888.0;-2412.5788422396868;-2418.276715085591;71.28979967824944;-10636.533404859962;-19416.666666666668;8780.133261806706
0.2480000000000002;-231742455.0;-216172485.0;107978.0;-2449.57074810184;-2432.875556047825;52.729368060702654;-9247.976465538271;-18750.0;9502.023534461729
0.25200000000000017;-241664522.0;-225807495.0;35002.0;-2480.516694336062;-2399.9947485647926;-24.90139259902844;-7736.486558555498;-13666.666666666666;5930.180108111168
0.25600000000000017;-251685665.0;-235497437.0;-121551.0;-2505.285465827885;-2432.9435872008044;-35.97305560408313;-6192.192872955843;-2333.3333333333335;-3858.8595396225096
0.2600000000000002;-261781816.0;-245412598.0;-167014.0;-2524.0377427967514;-2493.3820806503104;-6.794560666488451;-4688.069242216557;-916.6666666666666;-3771.40257554989
0.2640000000000002;-271930433.0;-255525513.0;-104400.0;-2537.154119549661;-2527.01516708195;8.175845960696279;-3279.0941882274183;-7000.0;3720.9058117725817
0.2680000000000002;-282111623.0;-265682373.0;-64054.0;-2545.2972845689505;-2548.6180981626985;15.646553549669079;-2035.7912548223567;-10750.0;8714.208745177642
0.2720000000000002;-292309694.0;-275971069.0;63418.0;-2549.5178068641876;-2574.7078043060983;38.206980833280795;-1055.1305738092651;-9250.0;8194.869426190735
0.2760000000000002;-302514135.0;-286435547.0;340204.0;-2551.110034891632;-2619.0091125043973;92.49841064857901;-398.0570068611087;-6750.0;6351.942993138891
0.2800000000000002;-312719225.0;-296619873.0;324032.0;-2551.2724274645257;-2536.1725162802554;5.490065504570794;-40.598143223405714;-5250.0;5209.401856776594
0.2840000000000002;-322922723.0;-306507568.0;7066.0;-2550.874380789597;-2485.935202670646;-64.80592887765306;99.51166873213424;5250.0;-5150.488331267866
0.2880000000000002;-333124389.0;-316532593.0;-172364.0;-2550.4163290357023;-2520.4037739284904;-41.05172272992286;114.5129384736947;9166.666666666666;-9052.15372819297
0.2920000000000002;-343324802.0;-326799316.0;-108422.0;-2550.1031360100314;-2551.6243186712095;-5.576104059763111;78.29825641772459;3666.6666666666665;-3588.368410248942
0.2960000000000002;-353524636.0;-336950684.0;-158234.0;-2549.958362633747;-2544.9610820267003;-14.827794764962164;36.19334407107999;-4083.3333333333335;4119.526677404414
0.3000000000000002;-363724351.0;-347371216.0;62107.0;-2549.928553769228;-2605.338101634551;59.01695089074747;7.452216129763656;-7333.333333333333;7340.785549463097
0.3040000000000002;-373924154.0;-357731323.0;222424.0;-2549.9506891024257;-2581.1324089731943;44.53045680695959;-5.533833299409707;-4666.666666666667;4661.132833367257
0.3080000000000002;-384124081.0;-367805786.0;97136.0;-2549.9817084488172;-2518.26053564881;-25.84880909548474;-7.754836597882786;-583.3333333333334;575.5784967354506
0.3120000000000002;-394324091.0;-377759399.0;-149102.0;-2550.0024541130947;-2499.944984438586;-58.9639936507906;-5.186416069363986;6333.333333333333;-6338.519749402697
0.3160000000000002;-404524132.0;-388042603.0;-65857.0;-2550.01014569176;-2574.3500932051684;20.408921178596756;-1.9228946663361057;6500.0;-6501.922894666336
0.32000000000000023;-414724170.0;-398369751.0;61269.0;-2550.0092219854505;-2584.3639263184077;38.03468417117756;0.23092657738743583;-2416.6666666666665;2416.897593244054
0.32400000000000023;-424924190.0;-408543091.0;34569.0;-2550.0050415807195;-2547.771857577863;-0.16373681093364212;1.045101182739927;-5750.0;5751.04510118274
0.32800000000000024;-435124195.0;-418820801.0;112248.0;-2550.001118384024;-2576.3691515125165;33.09646157988573;0.9807991739307909;-1833.3333333333333;1834.314132507264
0.33200000000000024;-445324191.0;-429268799.0;360232.0;-2549.998799842663;-2609.3834982848066;80.99390769571482;0.5796353401592569;-1250.0;1250.5796353401593
0.33600000000000024;-455524184.0;-439348755.0;240187.0;-2549.9980161127933;-2517.070854300228;-18.51814780585846;0.19593246747717785;-750.0;750.1959324674772
0.34000000000000025;-465724177.0;-449329834.0;21271.0;-2549.9981475850586;-2498.0483476191976;-50.673895072019604;-0.032868066341507074;4333.333333333333;-4333.3662013996745
0.34400000000000025;-475924172.0;-459437256.0;-71300.0;-2549.9985924866064;-2528.1004691687967;-26.175603662860794;-0.11122538694507966;7166.666666666667;-7166.777892053612
0.34800000000000025;-486124168.0;-469654541.0;-54009.0;-2549.998989239668;-2550.402901692708;-2.8359615185172515;-0.0991882653806897;2416.6666666666665;-2416.765854932047
0.35200000000000026;-496324165.0;-479888306.0;-20239.0;-2549.999212544813;-2554.551684173413;3.338596987265646;-0.055826286256888125;-4750.0;4749.944173713743
0.35600000000000026;-506524163.0;-490067139.0;-41403.0;-2549.999280027513;-2553.695240025754;1.211984573808877;-0.01687067504008155;-3166.6666666666665;3166.6497959916264
0.36000000000000026;-516724161.0;-500471191.0;162652.0;-2549.999259384583;-2595.3159731843375;55.07585519211261;0.005160732484910113;-2666.6666666666665;2666.6718273991514
0.36400000000000027;-526924158.0;-510622559.0;114022.0;-2549.999211872298;-2527.3981408154013;-15.759810632103381;0.01187807129099383;-1916.6666666666667;1916.6785447379577
0.36800000000000027;-537124155.0;-520576172.0;-132363.0;-2549.9991723045678;-2490.504602614928;-67.43641805272864;0.009891932563732553;3500.0;-3499.9901080674363
0.3720000000000003;-547324152.0;-530694580.0;-213952.0;-2549.999151399996;-2541.3405724130207;-21.495744049683708;0.005226142889114271;6583.333333333333;-6583.328107190444
0.3760000000000003;-557524149.0;-540928345.0;-180184.0;-2549.999146113973;-2550.9472606299732;-9.862943618091776;0.0013215058061177842;1750.0;-1749.9986784941939
0.3800000000000003;-567724146.0;-551030273.0;-278253.0;-2549.9991491215983;-2527.6108016282606;-39.083527798393334;-0.0007519063274230575;-2750.0;2749.9992480936726
0.3840000000000003;-577924143.0;-561329956.0;-178567.0;-2549.999154260823;-2588.431921555615;27.718754218195954;-0.0012848062169723562;-3583.3333333333335;3583.3320485271165
0.3880000000000003;-588124140.0;-571920776.0;212256.0;-2549.9991582425905;-2638.3157096551836;101.05191851358632;-0.0009954418374036322;-5583.333333333333;5583.332337891496
0.3920000000000003;-598324138.0;-582176514.0;267997.0;-2549.999160208291;-2548.667047893925;14.747712084501472;-0.0004914251121590496;-6416.666666666667;6416.666175241555
0.3960000000000003;-608524135.0;-592157593.0;49079.0;-2549.9991606031667;-2513.2356613202196;-33.81875767840302;-9.871894235402578e-05;2500.0;-2500.0000987189424
0.4000000000000003;-618724132.0;-602248535.0;-59977.0;-2549.9991602182263;-2528.475391999926;-25.12238835340804;9.623511232348392e-05;9500.0;-9499.999903764889
0.4040000000000003;-628924129.0;-612377930.0;-130579.0;-2549.9991596730038;-2529.0689587743545;-28.76494167387682;0.0001363056298941956;6916.666666666667;-6916.666530361037
0.4080000000000003;-639124126.0;-622545776.0;-162730.0;-2549.9991592768506;-2548.504031192336;-11.258928811972055;9.90382886811858e-05;-1833.3333333333333;1833.333432371622
0.4120000000000003;-649324123.0;-632922363.0;13860.0;-2549.9991590948734;-2594.5352879183542;45.36772839922969;4.549428922473453e-05;-4916.666666666667;4916.666712160956
0.4160000000000003;-659524120.0;-643244019.0;135519.0;-2549.9991590691834;-2570.6755010070287;28.80748180001092;6.422510523407254e-06;-5250.0;5250.0000064225105
0.4200000000000003;-669724117.0;-653516235.0;207738.0;-2549.9991591158796;-2565.901615120154;28.366736034398855;-1.1674046618281864e-05;-3250.0;3249.9999883259534
0.4240000000000003;-679924115.0;-663568726.0;60232.0;-2549.9991591730777;-2498.8128369242054;-47.57240216364107;-1.4299530448624864e-05;1750.0;-1750.0000142995304
0.4280000000000003;-690124112.0;-673560791.0;-147700.0;-2549.9991592120887;-2501.280218689398;-57.58094044888503;-9.752739060786553e-06;8583.333333333334;-8583.333343086073
0.43200000000000033;-700324109.0;-683756104.0;-152385.0;-2549.9991592286137;-2546.2475987602024;-12.894660428000861;-4.131265995965805e-06;4000.0;-4000.000004131266
0.43600000000000033;-710524106.0;-693945923.0;-162563.0;-2549.9991592298506;-2543.6335427049107;-16.119396513507127;-3.092281986027956e-07;-166.66666666666666;166.66666635743846
0.44000000000000034;-720724103.0;-704135742.0;-172741.0;-2549.999159224295;-2563.876103918358;3.512484689352277;1.388912096444983e-06;-3833.3333333333335;3833.3333347222456
0.44400000000000034;-730924100.0;-714605713.0;97233.0;-2549.9991592184756;-2609.4339734165574;65.26879418891713;1.4548504623235203e-06;-5666.666666666667;5666.666668121517
0.44800000000000034;-741124097.0;-724801025.0;92548.0;-2549.9991592146635;-2546.784291753408;2.3380125313838107;9.530367606203072e-07;-3083.3333333333335;3083.3333342863702
0.45200000000000035;-751324094.0;-734743652.0;-164822.0;-2549.9991592131632;-2493.937101022643;-65.95137819435195;3.750528776436113e-07;2250.0;-2249.999999624947
0.45600000000000035;-761524092.0;-744922485.0;-185986.0;-2549.9991592132037;-2550.013018629018;-11.14530058506989;-1.0118128557223827e-08;6916.666666666667;-6916.666666676785
0.46000000000000035;-771724089.0;-755189209.0;-119259.0;-2549.999159213812;-2562.8254979771577;5.670798763978837;-1.5211298887152225e-07;2000.0;-2000.000000152113
0.46400000000000036;-781924086.0;-765472412.0;-36054.0;-2549.9991592143797;-2563.60515421162;11.442754998183773;-1.418811734765768e-07;-5083.333333333333;5083.333333191452
0.46800000000000036;-792124083.0;-775783081.0;74618.0;-2549.999159214745;-2585.319705849699;39.797626635659526;-9.129053069045767e-08;-4666.666666666667;4666.666666575376
0.47200000000000036;-802324080.0;-786187134.0;278674.0;-2549.999159214907;-2602.379687342187;69.10096812767597;-4.058620106661692e-08;-2500.0;2499.999999959414
0.47600000000000037;-812524077.0;-796387939.0;279482.0;-2549.999159214907;-2547.683265831104;14.453026616301486;0.0;-750.0;750.0
0.48000000000000037;-822724074.0;-806308594.0;140.0;-2549.9991592147853;-2482.80115044724;-67.18960876766914;3.0468072509393096e-08;4333.333333333333;-4333.333333302865
0.4840000000000004;-832924071.0;-816427002.0;-81449.0;-2549.999159214745;-2538.698917631131;-16.187181583730307;1.0118128557223827e-08;8166.666666666667;-8166.666666656549
0.4880000000000004;-843124069.0;-826622314.0;-86134.0;-2549.9991592147044;-2544.893674142679;-10.273525072091616;1.0118128557223827e-08;2750.0;-2749.999999989882
