Zeit[sec];Sollposition[°];Istposition[°];Positionsschleppfehler[°];Sollgeschwindigkeit[°/s];Istgeschwindigkeit[°/s];Geschwindigkeitsdifferenz[°/s];Sollbeschleunigung[°/s*s];Istbeschleunigung[°/s*s];Beschleunigungsdifferenz[°/s*s]
0.0;0.0;5493.0;-5493.0;0.0;3.1999193005524655;-3.5294993005524655;0.0;0.0;0.0
0.004;0.0;0.0;0.0;0.0;1.1407806503922784;-1.1407806503922784;0.0;0.0;0.0
0.008;0.0;-5493.0;5493.0;0.0;-2.5221511766381037;2.8517311766381037;0.0;0.0;0.0
0.012;0.0;-5493.0;5493.0;0.0;-3.7024550973516512;4.032035097351652;0.0;0.0;0.0
0.016;0.0;0.0;0.0;0.0;0.4926024554084605;-0.4926024554084605;0.0;0.0;0.0
0.02;0.0;-5493.0;5493.0;0.0;-1.8869778258744585;2.2165578258744585;0.0;0.0;0.0
0.024;0.0;-5493.0;5493.0;0.0;-3.406898674831993;3.736478674831993;0.0;83.33333333333333;-83.33333333333333
0.028;0.0;5493.0;-5493.0;0.0;1.8601405447553814;-2.1897205447553816;0.0;0.0;0.0
0.032;0.0;-5493.0;5493.0;0.0;-1.732002244420712;2.061582244420712;0.0;-83.33333333333333;83.33333333333333
0.036000000000000004;-113.0;5493.0;-5493.0;-0.028270803433107727;4.167650757194069;-4.497230757194069;-7.067700858276932;-83.33333333333333;76.26563247505639
0.04000000000000001;-1240.0;5493.0;-5538.0;-0.2817375789472794;3.4056969134940975;-3.749185845324021;-63.36669387854292;0.0;-63.36669387854292
0.04400000000000001;-6779.0;5493.0;-6052.0;-1.3847973308881218;2.999213911265793;-3.490934681533037;-275.7649379852106;83.33333333333333;-359.09827131854394
0.048000000000000015;-25088.0;-5493.0;2063.0;-4.577227357068604;-2.3241122923188353;1.7302939139234144;-798.1075065451205;0.0;-798.1075065451205
0.05200000000000002;-71534.0;0.0;-14006.0;-11.611664895920734;-0.15690724755609384;-3.3275354662594014;-1758.6093847130326;0.0;-1758.6093847130326
0.05600000000000002;-168677.0;-5493.0;-37903.0;-24.285634204039948;-3.3246311096191214;-6.297115173833157;-3168.492327029803;0.0;-3168.492327029803
0.060000000000000026;-344132.0;5493.0;-115271.0;-43.86372213793395;3.2512992714730116;-26.763037559838367;-4894.5219834735;0.0;-4894.5219834735
0.06400000000000003;-627820.0;-5493.0;-232180.0;-70.92199754198626;-3.0899783775229532;-42.814600245767224;-6764.568851013078;0.0;-6764.568851013078
0.06800000000000003;-1050569.0;-5493.0;-450089.0;-105.68721329250887;-2.078093029932743;-79.40443716116711;-8691.303937630653;0.0;-8691.303937630653
0.07200000000000004;-1643760.0;-16479.0;-777292.0;-148.29776989217035;-5.1865493208644144;-125.99828847726236;-10652.639149915369;-83.33333333333333;-10569.305816582037
0.07600000000000004;-2438342.0;-43945.0;-1239338.0;-198.6455456210527;-11.561278837287436;-185.17693192100214;-12586.943932220585;-250.0;-12336.943932220585
0.08000000000000004;-3462852.0;-115356.0;-1839968.0;-256.12759678811705;-20.47895626854287;-257.9293287860574;-14370.512791766088;-1000.0;-13370.512791766088
0.08400000000000005;-4741588.0;-411987.0;-2427901.0;-319.68400608498644;-83.44645342462762;-283.36888082870513;-15889.102324217347;-3250.0;-12639.102324217347
0.08800000000000005;-6293498.0;-1510620.0;-2453228.0;-387.97725260410584;-283.2838728685552;-144.89971824331832;-17073.31162977985;-13750.0;-3323.3116297798515
0.09200000000000005;-8131560.0;-2966309.0;-2383094.0;-459.5156358969126;-352.5849827407445;-136.789467671372;-17884.595823201693;-27250.0;9365.404176798307
0.09600000000000006;-10262974.0;-4586792.0;-2426376.0;-532.8533711462574;-418.0413502887116;-143.48215776243018;-18334.433812336185;-27833.333333333332;9498.899520997145
0.10000000000000006;-12690438.0;-6597290.0;-2368572.0;-606.8660131431093;-508.15350114610874;-122.13455066044946;-18503.16049921298;-24000.0;5496.839500787019
0.10400000000000006;-15413994.0;-8975830.0;-2237107.0;-680.8890725395245;-606.333733742847;-89.66120021515428;-18505.764849103798;-17333.333333333332;-1172.431515770466
0.10800000000000007;-18432640.0;-11931152.0;-1824910.0;-754.6614682679489;-741.2102316125057;-4.065700146778795;-18443.098932106095;-24666.666666666668;6223.567734560572
0.11200000000000007;-21745333.0;-15078735.0;-1516147.0;-828.1730652410114;-777.2217358112576;-23.45203007725297;-18377.89924326563;-26583.333333333332;8205.434090067702
0.11600000000000008;-25351397.0;-18363647.0;-1364737.0;-901.5159514113685;-829.8260153104231;-35.433612407420924;-18335.721542589283;-20666.666666666668;2330.9451240773847
0.12000000000000008;-29250550.0;-22038574.0;-1117097.0;-974.7881815513341;-919.2150508826846;-4.632410728762807;-18318.057534991396;-16833.333333333332;-1484.7242016580644
0.12400000000000008;-33442764.0;-26059570.0;-816651.0;-1048.053466561913;-1003.4590300385102;24.322467728895845;-18316.321252644713;-15750.0;-2566.3212526447123
0.12800000000000009;-37928117.0;-30124512.0;-765339.0;-1121.3381714012394;-1014.4792113353692;-34.84852147910442;-18321.176209831607;-18250.0;-71.17620983160577
0.1320000000000001;-42706694.0;-34414673.0;-781900.0;-1194.6442734241189;-1076.3219432899393;-47.27247488789408;-18326.52550571987;-14000.0;-4326.525505719872
0.1360000000000001;-47778549.0;-39089355.0;-707112.0;-1267.9637214609265;-1164.6151127153028;-27.785100162746176;-18329.86200920192;-13166.666666666666;-5163.195342535251
0.1400000000000001;-53143701.0;-44033203.0;-656403.0;-1341.2878626386187;-1235.4483146302478;-27.220626382549653;-18331.035294423033;-15750.0;-2581.0352944230317
0.1440000000000001;-58802146.0;-49306641.0;-569389.0;-1414.6113107477715;-1325.3128493791546;-5.456482228179993;-18330.862027288218;-19416.666666666668;1085.8046393784484
0.1480000000000001;-64753875.0;-54953613.0;-402137.0;-1487.932145568762;-1411.7201457570995;17.662095261791364;-18330.208705247627;-20666.666666666668;2336.4579614190397
0.1520000000000001;-70998878.0;-60869751.0;-259008.0;-1561.2506051651233;-1476.218277043069;17.425550505584397;-18329.614899090302;-20500.0;2170.385100909698
0.1560000000000001;-77537149.0;-67011108.0;-183940.0;-1634.5677060248654;-1536.5968952337187;8.988340302461665;-18329.275214935536;-19333.333333333332;1004.058118397797
0.16000000000000011;-84368687.0;-73339233.0;-215375.0;-1707.884382198168;-1583.8327013978378;-18.97988832927399;-18329.169043325634;-15916.666666666666;-2412.502376658969
0.16400000000000012;-91493492.0;-79942017.0;-265420.0;-1781.2011715861768;-1654.9229249201503;-24.209305246514987;-18329.197347002206;-13666.666666666666;-4662.530680335542
0.16800000000000012;-98911565.0;-86742554.0;-410978.0;-1854.5182445688924;-1703.6822965410515;-57.50013717517413;-18329.26824567892;-14500.0;-3829.268245678918
0.17200000000000013;-106622908.0;-93828735.0;-564160.0;-1927.835558582314;-1779.3543129544832;-64.33594192725468;-18329.328503355384;-14250.0;-4079.3285033553843
0.17600000000000013;-114627520.0;-101464233.0;-461294.0;-2001.153002775338;-1909.5704517974248;-1.2650099702493662;-18329.361048256033;-19000.0;670.6389517439675
0.18000000000000013;-122925403.0;-109357910.0;-393518.0;-2074.4704823051466;-1960.9193460766585;-19.16691990632603;-18329.369882452113;-22833.333333333332;4503.96345088122
0.18400000000000014;-131516555.0;-117377930.0;-492669.0;-2147.787945685266;-2012.9449587887043;-46.40782463501637;-18329.365845029883;-20666.666666666668;2337.3008216367843
0.18800000000000014;-140400977.0;-125809937.0;-473103.0;-2221.1053787670426;-2121.512513980904;-9.983782362474813;-18329.358270444118;-17583.333333333332;-746.0249371107857
0.19200000000000014;-149578668.0;-134692383.0;-296368.0;-2294.4227877752955;-2224.939833164329;30.730185359023835;-18329.352252063247;-18083.333333333332;-246.0189187299129
0.19600000000000015;-159049629.0;-143838501.0;-149230.0;-2367.740184604546;-2285.859732072814;27.160940552980264;-18329.34920731259;-23250.0;4920.650792687411
0.20000000000000015;-168813860.0;-152979126.0;-300855.0;-2441.05757875448;-2291.4577471093057;-49.65594873105374;-18329.348537483496;-19416.666666666668;1087.3181291831706
0.20400000000000015;-178871361.0;-162372437.0;-493063.0;-2514.3749750571665;-2349.2433529409595;-76.72021873770427;-18329.349075671642;-12166.666666666666;-6162.682409004978
0.20800000000000016;-189222131.0;-172210693.0;-533597.0;-2587.6923745966983;-2454.868041418979;-46.844965278849486;-18329.34988488296;-12250.0;-6079.349884882959
0.21200000000000016;-199866170.0;-182400513.0;-515836.0;-2661.0097765406795;-2544.6887859340472;-29.275958337214888;-18329.350485995292;-18333.333333333332;3.982847338040301
0.21600000000000016;-210803413.0;-192755127.0;-626550.0;-2734.310563504013;-2598.0936968296733;-55.831287915482335;-18325.196740833348;-20666.666666666668;2341.4699258333194
0.22000000000000017;-222033429.0;-203823853.0;-316396.0;-2807.503916292615;-2767.8246524741203;59.198093379291095;-18298.338197150544;-22500.0;4201.661802849458
0.22400000000000017;-233554916.0;-215183716.0;-8137.0;-2880.3715356844427;-2831.899349789047;68.51004234910579;-18216.904847956925;-26000.0;7783.095152043074
0.22800000000000017;-245364991.0;-226477661.0;-58057.0;-2952.5185417422954;-2815.760147202429;-23.689194320998013;-18036.75151446316;-22666.666666666668;4629.915152203505
0.23200000000000018;-257457729.0;-237782593.0;-387324.0;-3023.1845561941536;-2845.2869291127477;-86.50224846928995;-17666.50361296456;-11000.0;-6666.503612964561
0.23600000000000018;-269821934.0;-249735718.0;-354655.0;-3091.0511085639964;-2992.973307549852;-8.419768402509362;-16966.6380924607;-7583.333333333333;-9383.304759127364
0.24000000000000019;-282439636.0;-262012939.0;-276148.0;-3154.4251564389933;-3067.054132030021;0.8067269145358296;-15843.511968749226;-16833.333333333332;989.821364584106
0.2440000000000002;-295286442.0;-274537354.0;-214855.0;-3211.7015614850156;-3130.682619300596;2.011046553952383;-14319.10126150558;-24500.0;10180.89873849442
0.2480000000000002;-308333192.0;-287561646.0;102384.0;-3261.6873415834407;-3261.8373133282093;91.21732954406298;-12496.445024606259;-23250.0;10753.554975393741
0.25200000000000017;-321547945.0;-300443115.0;59115.0;-3303.687863991146;-3202.7466717657153;-24.890966564695646;-10500.130601926343;-18416.666666666668;7916.536064740324
0.25600000000000017;-334897876.0;-313236694.0;-259495.0;-3337.4825924367265;-3206.274279499805;-87.34242752986302;-8448.682111395101;-7666.666666666667;-782.015444728434
0.2600000000000002;-348350814.0;-326447754.0;-315800.0;-3363.2343839798655;-3306.8411362773513;-28.947712688851425;-6437.947885784752;-4833.333333333333;-1604.6145524514186
0.2640000000000002;-361876411.0;-339971924.0;-181609.0;-3381.3992405482577;-3374.241666084842;15.850366659988595;-4541.214142098056;-7833.333333333333;3292.119191235277
0.2680000000000002;-375447694.0;-353655396.0;20720.0;-3392.8205415102098;-3419.1776841257088;50.13530774593255;-2855.325240488014;-17000.0;14144.674759511985
0.2720000000000002;-389043203.0;-367267456.0;89495.0;-3398.8771091674516;-3391.0490018514156;10.597528636032166;-1514.1419143104713;-14666.666666666666;13152.524752356196
0.2760000000000002;-402648368.0;-380604858.0;-153724.0;-3401.2909196257474;-3339.0992693898443;-65.27912487726553;-603.4526145739392;-583.3333333333334;-20.1192812406058
0.2800000000000002;-416255061.0;-394244385.0;-113392.0;-3401.6731013298627;-3414.6938272395505;8.091647642288535;-95.54542602882066;2750.0;-2845.5454260288207
0.2840000000000002;-429859908.0;-407999268.0;35777.0;-3401.211698714302;-3428.7020192181635;29.420333938978274;115.35065389011834;-1166.6666666666667;1282.017320556785
0.2880000000000002;-443462352.0;-421693726.0;124282.0;-3400.6109151258397;-3429.2780538893608;35.24705083307981;150.19589711562276;-5333.333333333333;5483.529230448956
0.2920000000000002;-457063062.0;-435454102.0;280753.0;-3400.1771413403203;-3429.1010601529147;44.97003921324267;108.4434463798516;-6166.666666666667;6275.110113046519
0.2960000000000002;-470662917.0;-448923340.0;148221.0;-3399.963708887193;-3357.417238585824;-34.13195222811055;53.35811328177442;2333.3333333333335;-2279.975220051559
0.3000000000000002;-484262555.0;-462304688.0;-70812.0;-3399.9093871905256;-3352.5612624501473;-51.78251790065815;13.580424166889316;6750.0;-6736.419575833111
0.3040000000000002;-497862284.0;-475949707.0;-25567.0;-3399.931924790224;-3408.273594878168;6.796153114140452;-5.6343999245882515;4916.666666666667;-4922.301066591255
0.3080000000000002;-511462171.0;-489633179.0;58229.0;-3399.971776236306;-3425.137875017226;28.712973729380792;-9.962861520534716;-583.3333333333334;573.3704718127987
0.3120000000000002;-525062174.0;-503322144.0;147403.0;-3400.0005247879826;-3424.649120031339;33.54570682167423;-7.1871379191179585;-6583.333333333333;6576.146195414215
0.3160000000000002;-538662224.0;-516945190.0;170517.0;-3400.012381049402;-3392.7272588866576;2.9753378033774425;-2.964065354831291;-3666.6666666666665;3663.702601311835
0.32000000000000023;-552262274.0;-530271606.0;-103088.0;-3400.0122792782026;-3344.462246642974;-61.72809051886861;0.02544279982430453;4833.333333333333;-4833.307890533509
0.32400000000000023;-565862303.0;-543768311.0;-206433.0;-3400.007181560704;-3372.0381371383537;-40.36011409007142;1.2744293746891344;5666.666666666667;-5665.392237291978
0.32800000000000024;-579462312.0;-557369385.0;-205400.0;-3400.00196885937;-3406.0971000843597;-6.237158624818676;1.3031753334189489;3166.6666666666665;-3165.3634913332476
0.33200000000000024;-593062307.0;-571305542.0;130736.0;-3399.998701100555;-3485.7439203153726;93.58293563986672;0.8169397037818271;-6916.666666666667;6917.483606370449
0.33600000000000024;-606662298.0;-585082397.0;307587.0;-3399.9974690733875;-3430.084327595204;48.53884380797945;0.3080067918972418;-10500.0;10500.308006791896
0.34000000000000025;-620262289.0;-598375854.0;1051.0;-3399.997525374665;-3320.5510524712336;-79.38411929682798;-0.01407531942732021;583.3333333333334;-583.3474086527607
0.34400000000000025;-633862282.0;-611801147.0;-173647.0;-3399.998072949858;-3359.7313609302864;-50.68495768458797;-0.1368937981851559;9250.0;-9250.136893798186
0.34800000000000025;-647462277.0;-625457153.0;-117633.0;-3399.998603341557;-3412.818639045446;5.762916895665967;-0.1325979247894793;7750.0;-7750.1325979247895
0.35200000000000026;-661062273.0;-639250488.0;75708.0;-3399.9989206770997;-3438.3629669486345;42.90716691520447;-0.07933388565106725;-4750.0;4749.920666114349
0.35600000000000026;-674662270.0;-652966919.0;192144.0;-3399.999029877904;-3422.0604577901872;33.590371737815076;-0.02730020105445874;-9333.333333333334;9333.30603313228
0.36000000000000026;-688262266.0;-666414185.0;39413.0;-3399.9990139444885;-3349.350382474774;-48.28379963934776;0.003983353849434934;-1083.3333333333333;1083.3373166871827
0.36400000000000027;-701862263.0;-679817505.0;-157263.0;-3399.998954632869;-3365.2616047318006;-44.173198188904735;0.014827904919911816;8166.666666666667;-8166.651838761747
0.36800000000000027;-715462259.0;-693418579.0;-156186.0;-3399.998901338081;-3400.174663828099;-9.19548669361302;0.013323696975930943;5000.0;-4999.986676303024
0.3720000000000003;-729062255.0;-707058105.0;-116656.0;-3399.998871319735;-3419.1704893811225;12.172195531272337;0.007504586506001942;-166.66666666666666;166.67417125317266
0.3760000000000003;-742662251.0;-720884399.0;109642.0;-3399.9988623265635;-3443.0026718805625;49.58230213201705;0.002248292844342359;-8750.0;8750.002248292843
0.3800000000000003;-756262247.0;-734298706.0;-76047.0;-3399.9988652326056;-3348.21330990344;-56.34837802653328;-0.000726510506865452;-2333.3333333333335;2333.3326068228266
0.3840000000000003;-769862244.0;-747778931.0;-195818.0;-3399.9988717475394;-3377.307130494601;-34.44081303686107;-0.0016287334574371926;4666.666666666667;-4666.668295400124
0.3880000000000003;-783462240.0;-761522827.0;-51919.0;-3399.9988771565363;-3436.8991726328286;33.78516483418571;-0.001352249228148139;3083.3333333333335;-3083.3346855825616
0.3920000000000003;-797062236.0;-775211792.0;37050.0;-3399.99888001266;-3425.6083353786985;27.832461524747032;-0.0007140308753150748;-1916.6666666666667;1916.6659526357914
0.3960000000000003;-810662232.0;-788977661.0;202923.0;-3399.998880736433;-3451.1331892963935;63.30969103914185;-0.00018094328879669774;-6666.666666666667;6666.666485723378
0.4000000000000003;-824262228.0;-802584229.0;209495.0;-3399.998880328236;-3390.471715971604;3.0425356887149064;0.0001020492845782428;-2500.0;2500.0001020492846
0.4040000000000003;-837862224.0;-815932617.0;-42113.0;-3399.9988796284692;-3340.2979020448593;-62.22775852548739;0.0001749416469465359;5916.666666666667;-5916.66649172502
0.4080000000000003;-851462221.0;-829467773.0;-106953.0;-3399.998879086004;-3379.1976152280367;-27.21844482513916;0.00013561634659708943;5583.333333333333;-5583.333197716986
0.4120000000000003;-865062217.0;-843112793.0;-61930.0;-3399.998878818036;-3409.2404534740613;5.525774056569844;6.699201549054123e-05;3250.0;-3249.9999330079845
0.4160000000000003;-878662213.0;-856851196.0;76477.0;-3399.998878764102;-3432.42234325292;37.012084269987554;1.3483486327459104e-05;-5250.0;5250.000013483486
0.4200000000000003;-892262209.0;-870573120.0;198405.0;-3399.9988788162923;-3420.710304112708;32.615725314484735;-1.3047610991634429e-05;-6750.0;6749.999986952389
0.4240000000000003;-905862205.0;-883894043.0;-80668.0;-3399.998878890543;-3325.027298353276;-79.81166043183248;-1.8562673176347744e-05;1416.6666666666667;-1416.66668522934
0.4280000000000003;-919462201.0;-897374268.0;-200439.0;-3399.998878944437;-3373.747862100279;-38.277356745147245;-1.3473481885739602e-05;7250.0;-7250.000013473482
0.43200000000000033;-933062198.0;-910947876.0;-226827.0;-3399.998878969214;-3383.910250078888;-29.698248832580248;-6.194227353262249e-06;4000.0;-4000.0000061942274
0.43600000000000033;-946662194.0;-924686279.0;-88421.0;-3399.9988789727013;-3440.5520952872453;35.247956333313596;-8.718643584870733e-07;-2000.0;1999.9999991281356
0.44000000000000034;-960262190.0;-938594971.0;220275.0;-3399.998878966578;-3471.635852931998;84.85347396155521;1.5307932699215598e-06;-10500.0;10500.000001530792
0.44400000000000034;-973862186.0;-952130127.0;155435.0;-3399.998878958589;-3374.584535228873;-16.088243741377937;1.9972503650933504e-06;-3916.6666666666665;3916.666668663917
0.44800000000000034;-987462182.0;-965555420.0;-19268.0;-3399.998878953277;-3370.092097803652;-31.062861159790828;1.3279759514261968e-06;4416.666666666667;-4416.666665338691
0.45200000000000035;-1001062178.0;-979068604.0;-106080.0;-3399.9988789510467;-3375.0460673282155;-31.317611628312534;5.576339390245266e-07;7166.666666666667;-7166.666666109033
0.45600000000000035;-1014662175.0;-992768555.0;-6125.0;-3399.9988789508443;-3437.204435391288;36.838056438856256;5.059064278611913e-08;4083.3333333333335;-4083.333333282743
0.46000000000000035;-1028262171.0;-1006633301.0;258624.0;-3399.998878951574;-3466.046667050961;81.56522809998114;-1.8246737454319373e-07;-8583.333333333334;8583.333333150866
0.46400000000000036;-1041862167.0;-1020179443.0;204770.0;-3399.9988789524255;-3382.52559178077;-5.18708717037498;-2.128217602148652e-07;-4750.0;4749.999999787178
0.46800000000000036;-1055462163.0;-1033439941.0;-134728.0;-3399.998878953074;-3323.0652521269067;-85.01730682498601;-1.6211743059102446e-07;4083.3333333333335;-4083.333333495451
0.47200000000000036;-1069062159.0;-1046991577.0;-183088.0;-3399.9988789531153;-3388.800700582242;-22.183458370446715;-1.0345502232667059e-08;8833.333333333334;-8833.333333343679
0.47600000000000037;-1082662155.0;-1060614624.0;-160037.0;-3399.9988789531553;-3402.318397834007;-7.282701119081139;-1.000444171950221e-08;2500.0;-2500.0000000100044
0.48000000000000037;-1096262152.0;-1074391479.0;16822.0;-3399.998878953074;-3450.861808436568;51.87224948342555;2.034994395216927e-08;-6333.333333333333;6333.333333353683
0.4840000000000004;-1109862148.0;-1088096924.0;122270.0;-3399.9988789529525;-3404.352481817483;11.689802864362719;3.035438567167148e-08;-8833.333333333334;8833.333333363687
0.4880000000000004;-1123462144.0;-1101368408.0;-206242.0;-3399.998878952912;-3328.401439086671;-83.97195986636098;1.0118128557223827e-08;3750.0;-3749.999999989882
