Zeit[sec];Sollposition[°];Istposition[°];Positionsschleppfehler[°];Sollgeschwindigkeit[°/s];Istgeschwindigkeit[°/s];Geschwindigkeitsdifferenz[°/s];Sollbeschleunigung[°/s*s];Istbeschleunigung[°/s*s];Beschleunigungsdifferenz[°/s*s]
0.0;0.0;0.0;0.0;-0.0;0.9656263641683944;-0.9656263641683944;0.0;0.0;0.0
0.004;0.0;-5493.0;5493.0;-0.0;-1.482410681324157;2.009738681324157;0.0;0.0;0.0
0.008;0.0;5493.0;-5493.0;-0.0;3.9767892357844232;-4.504117235784423;0.0;0.0;0.0
0.012;0.0;0.0;0.0;-0.0;0.5984477265966238;-0.5984477265966238;0.0;0.0;0.0
0.016;0.0;-10986.0;10986.0;-0.0;-4.820449364763838;5.875105364763838;0.0;0.0;0.0
0.02;0.0;-5493.0;5493.0;-0.0;-1.7910325746387399;2.31836057463874;0.0;0.0;0.0
0.024;0.0;0.0;0.0;-0.0;1.4025547082212748;-1.4025547082212748;0.0;0.0;0.0
0.028;0.0;0.0;0.0;-0.0;0.42907346011771647;-0.42907346011771647;0.0;0.0;0.0
0.032;0.0;5493.0;-5493.0;-0.0;2.793484651911315;-3.3208126519113152;0.0;0.0;0.0
0.036000000000000004;0.0;0.0;0.0;-0.0;1.090720316723522;-1.090720316723522;0.0;0.0;0.0
0.04000000000000001;-160.0;0.0;0.0;-0.040056380738376356;0.3184092618146782;-0.3184092618146782;-10.014095184594089;0.0;-10.014095184594089
0.04400000000000001;-1756.0;0.0;-63.0;-0.39918878702273786;0.6446472925220338;-0.666577021603851;-89.78310157109037;0.0;-89.78310157109037
0.048000000000000015;-9605.0;-5493.0;4701.0;-1.9620938351748864;-3.211291267865797;3.4803752048354086;-390.72626203803713;0.0;-390.72626203803713
0.05200000000000002;-124465.0;-5493.0;634.0;-28.71502337397844;-2.6310580658972897;1.6751701391166747;-6688.232384700888;0.0;-6688.232384700888
0.05600000000000002;-300812.0;-5493.0;-49606.0;-44.086645142945265;-1.1823712936568345;-16.1398594423631;-3842.905442241706;0.0;-3842.905442241706
0.060000000000000026;-607001.0;-27466.0;-166245.0;-76.54729808323322;-3.226672781329178;-47.385722995938046;-8115.163235071987;-333.3333333333333;-7781.829901738654
0.06400000000000003;-1061716.0;-82397.0;-338781.0;-113.67877876088764;-17.23846862422048;-72.15122611554423;-9282.870169413605;-500.0;-8782.870169413605
0.06800000000000003;-1654617.0;-241699.0;-543795.0;-148.22517158399125;-50.19947838642547;-93.08399246779017;-8636.598205775905;-1916.6666666666667;-6719.931539109238
0.07200000000000004;-2407464.0;-769043.0;-525085.0;-188.21194075651596;-133.22432562368957;-44.342150834575165;-9996.692293131176;-7000.0;-2996.6922931311756
0.07600000000000004;-3367710.0;-1417236.0;-532399.0;-240.0614094459279;-159.91712303344102;-55.070061463740075;-12962.367172352984;-12166.666666666666;-795.7005056863178
0.08000000000000004;-4589589.0;-2191772.0;-592003.0;-305.46961443885687;-200.14333517361206;-65.22410029468716;-16352.051248232243;-12500.0;-3852.051248232243
0.08400000000000005;-6120145.0;-3213501.0;-633038.0;-382.63905226967796;-257.583490537282;-68.87909270453724;-19292.359457705275;-11416.666666666666;-7875.6927910386075
0.08800000000000005;-7995921.0;-4526367.0;-662904.0;-468.9440695636865;-329.1434091466439;-70.17821441853692;-21576.25432350214;-11666.666666666666;-9909.587656835474
0.09200000000000005;-10243251.0;-6080933.0;-773959.0;-561.8323582481758;-391.8430902877436;-98.86245214832331;-23222.072171122305;-15500.0;-7722.072171122307
0.09600000000000006;-12879885.0;-7904663.0;-971298.0;-659.1585326766415;-460.282457702584;-138.2292814842848;-24331.54360711643;-16333.333333333334;-7998.2102737830955
0.10000000000000006;-15918024.0;-10178833.0;-1096634.0;-759.5347692521141;-573.6641165336206;-131.48914583745602;-25094.05914386815;-18250.0;-6844.059143868151
0.10400000000000006;-19365976.0;-12897949.0;-1171062.0;-861.9878640371882;-684.2844164518621;-126.52340709496627;-25613.273696268523;-22166.666666666668;-3446.6070296018534
0.10800000000000007;-23228660.0;-16100464.0;-1166817.0;-965.671004870513;-799.0982042100634;-112.48390628354207;-25920.78520833121;-27000.0;1079.2147916687895
0.11200000000000007;-27508276.0;-19731445.0;-1145822.0;-1069.9040051473391;-909.611390744007;-102.88381948226277;-26058.250069206537;-28666.666666666668;2608.416597460131
0.11600000000000008;-32205260.0;-23713989.0;-1188839.0;-1174.2459897260258;-1006.1794097813906;-114.33937665493431;-26085.49614467165;-27000.0;914.5038553283484
0.12000000000000008;-37319213.0;-28267822.0;-1077659.0;-1278.4881598707022;-1143.573848032487;-70.54464742079517;-26060.542536169123;-27083.333333333332;1022.7907971642089
0.12400000000000008;-42849551.0;-33123779.0;-1081562.0;-1382.5844365919422;-1209.0105138371139;-109.7844407514765;-26024.069180309994;-27500.0;1475.9308196900065
0.12800000000000009;-48795829.0;-38353271.0;-1128670.0;-1486.5694117208361;-1319.5061187857455;-107.99611433491259;-25996.24378222347;-25250.0;-746.2437822234733
0.1320000000000001;-55157818.0;-44225464.0;-949289.0;-1590.4970169078333;-1471.9397296528246;-42.39492969107414;-25981.9012967493;-26583.333333333332;601.4320365840326
0.1360000000000001;-61935454.0;-50405273.0;-878144.0;-1694.4090452444386;-1545.3495871335779;-66.11803321142497;-25978.00708415133;-27583.333333333332;1605.3262491820028
0.1400000000000001;-69128763.0;-56865234.0;-942533.0;-1798.327131432075;-1631.6662969374388;-89.90443276877227;-25979.521546909098;-26583.333333333332;603.8117864242345
0.1440000000000001;-76737792.0;-63929443.0;-818333.0;-1902.2570905828527;-1763.2886529957157;-50.27339816098879;-25982.48978769442;-25750.0;-232.4897876944192
0.1480000000000001;-84761357.0;-71180420.0;-923056.0;-2005.8912835574388;-1816.4399264852573;-111.09829080823465;-25908.54824364652;-23083.333333333332;-2825.214910313189
0.1520000000000001;-93194689.0;-78848877.0;-1025549.0;-2108.332743851832;-1937.0524200578745;-104.13774815073702;-25610.36507359836;-23500.0;-2110.3650735983592
0.1560000000000001;-102029174.0;-86978760.0;-1079268.0;-2208.621198958887;-2019.1510766042047;-130.35914171268269;-25072.113776763672;-24750.0;-322.1137767636719
0.16000000000000011;-111252088.0;-95542603.0;-1105407.0;-2305.7284299014236;-2158.229260537312;-95.38511782594423;-24276.80773563418;-23083.333333333332;-1193.474402300847
0.16400000000000012;-120843540.0;-104534912.0;-1099239.0;-2397.86298347576;-2245.443926728779;-106.61808833169653;-23033.638393584057;-29500.0;6466.361606415944
0.16800000000000012;-130775827.0;-114038086.0;-962822.0;-2483.0714131817554;-2380.9135856253956;-53.20667948454911;-21302.10742649888;-26083.333333333332;4781.225906834454
0.17200000000000013;-141016076.0;-123936768.0;-788569.0;-2560.0622718300606;-2480.8528341286747;-25.956733443948906;-19247.714662076305;-29833.333333333332;10585.618671257027
0.17600000000000013;-151527733.0;-134181519.0;-596210.0;-2627.9141454267406;-2549.580459457137;-20.75351805369519;-16962.968399169993;-26750.0;9787.031600830005
0.18000000000000013;-162270713.0;-144426270.0;-697512.0;-2685.7448151419826;-2575.5566593385142;-77.91785387471191;-14457.66742881051;-20250.0;5792.33257118949
0.18400000000000014;-173203094.0;-154830322.0;-895243.0;-2733.0951281460466;-2600.2743223155;-136.11453847726625;-11837.578251015999;-13416.666666666666;1579.0884156506681
0.18800000000000014;-184284420.0;-165629883.0;-912401.0;-2770.331471870168;-2699.4228640773845;-92.34725474170546;-9309.085931030382;-9750.0;440.9140689696187
0.19200000000000014;-195476948.0;-176396484.0;-1136126.0;-2798.131668810622;-2697.9447472784987;-158.70466209603546;-6950.049235113511;-12333.333333333334;5383.284098219823
0.19600000000000015;-206746671.0;-187360840.0;-1296313.0;-2817.4306992060883;-2738.147082670796;-167.43459920667783;-4824.75759886654;-10833.333333333334;6008.575734466794
0.20000000000000015;-218066844.0;-198830566.0;-1049070.0;-2830.0430614435663;-2855.606169255853;-50.7250917802744;-3153.0905593695024;-13250.0;10096.909440630498
0.20400000000000015;-229418746.0;-210217896.0;-951013.0;-2837.975527788084;-2844.698534333762;-68.91693717510316;-1983.1165861294267;-13416.666666666666;11433.55008053724
0.20800000000000016;-240788938.0;-221583252.0;-918115.0;-2842.54783555237;-2841.928909665184;-79.32439017921115;-1143.076941071513;-10333.333333333334;9190.256392261821
0.21200000000000016;-252167687.0;-233217773.0;-642561.0;-2844.6869914034696;-2891.7682225661542;-9.659530513178197;-534.7889627748827;-6166.666666666667;5631.877703891784
0.21600000000000016;-263548791.0;-244594116.0;-639696.0;-2845.275994774038;-2836.5556281417307;-68.22437441548391;-147.2508426420518;-1583.3333333333333;1436.0824906912815
0.22000000000000017;-274929141.0;-255734253.0;-879191.0;-2845.087406334873;-2798.2495823815448;-131.06074153886448;47.14710979123993;3416.6666666666665;-3369.5195568754266
0.22400000000000017;-286307803.0;-267242432.0;-751804.0;-2844.6652684048945;-2857.587247833666;-59.78370737931073;105.53448249459052;3250.0;-3144.4655175054095
0.22800000000000017;-297685004.0;-278684692.0;-689229.0;-2844.3000859062654;-2852.3403948450145;-58.746729406912436;91.29562465727759;916.6666666666666;-825.371042009389
0.23200000000000018;-309061346.0;-290000610.0;-751404.0;-2844.0854155167713;-2843.9258110096043;-72.7319257049985;53.66759737353277;-2666.6666666666665;2720.3342640401993
0.23600000000000018;-320437363.0;-301662598.0;-466285.0;-2844.0040795001896;-2903.034359328723;14.053887136463345;20.3340041454112;-3500.0;3520.334004145411
0.24000000000000019;-331813369.0;-313159790.0;-345311.0;-2844.001244897127;-2860.533339963785;-16.670940927600896;0.7086507656595131;-2666.6666666666665;2667.375317432326
0.2440000000000002;-343189478.0;-324459229.0;-421886.0;-2844.027217428059;-2847.5875257661064;-36.9169624364863;-6.493132732998674;333.3333333333333;-339.826466066332
0.2480000000000002;-354565689.0;-335753174.0;-503988.0;-2844.0526194277995;-2808.213045239484;-84.1813619693321;-6.350499935138032;3166.6666666666665;-3173.0171666018045
0.25200000000000017;-365941957.0;-347063599.0;-569712.0;-2844.066880548923;-2813.973441927086;-84.75604681416826;-3.565280280895422;6500.0;-6503.565280280895
0.25600000000000017;-377318240.0;-358291626.0;-717918.0;-2844.0706117273817;-2830.033113788436;-82.94513911121385;-0.9327946146413524;2583.3333333333335;-2584.266127947975
0.2600000000000002;-388694514.0;-369635010.0;-750808.0;-2844.0684066248023;-2832.6730539212895;-83.47279042033415;0.5512756448524669;666.6666666666666;-666.1153910218142
0.2640000000000002;-400070773.0;-381093750.0;-668347.0;-2844.0645333632406;-2857.065860251008;-51.16516732528544;0.9683153904234132;-2416.6666666666665;2417.63498205709
0.2680000000000002;-411447019.0;-392651367.0;-486998.0;-2844.0614039023662;-2896.317960171408;5.4992683137697895;0.7823652185834362;-5666.666666666667;5667.44903188525
0.2720000000000002;-422823258.0;-404192505.0;-322114.0;-2844.059717931622;-2883.8425739825625;8.856314706760713;0.4214926860868218;-5166.666666666667;5167.088159352754
0.2760000000000002;-434199496.0;-415684204.0;-206658.0;-2844.0592033824305;-2862.7202022549045;-1.179719523095173;0.1286372978483996;-2583.3333333333335;2583.461970631182
0.2800000000000002;-445575734.0;-427131958.0;-135143.0;-2844.0592987873615;-2864.0002927007736;6.96704090113235;-0.02385123275416845;750.0;-750.0238512327542
0.2840000000000002;-456951972.0;-438436890.0;-206449.0;-2844.0595426477757;-2831.683941147389;-32.194407076540756;-0.06096510355746432;4333.333333333333;-4333.3942984368905
0.2880000000000002;-468328212.0;-449752808.0;-266769.0;-2844.059692056287;-2826.244531951351;-43.42468696384776;-0.03735212783340103;4333.333333333333;-4333.370685461166
0.2920000000000002;-479704451.0;-461310425.0;-85391.0;-2844.0596858634976;-2886.3167666264194;34.059630169376305;0.0015481973605346866;333.3333333333333;-333.3317851359728
0.2960000000000002;-491080690.0;-472763672.0;-8383.0;-2844.059559505284;-2877.36653838381;32.502081658309635;0.031589553373123636;-2250.0;2250.031589553373
0.3000000000000002;-502456928.0;-484332275.0;183981.0;-2844.0593734091944;-2890.630728175441;64.23326837472223;0.04652402242300013;-4583.333333333333;4583.379857355756
0.3040000000000002;-513833165.0;-495917358.0;392825.0;-2844.059174602611;-2878.2009496591145;71.85266319764105;0.04970164582118741;-4000.0;4000.049701645821
0.3080000000000002;-525209401.0;-507167358.0;266587.0;-2844.058986521915;-2814.874716762198;-3.5922269136999603;0.04702017406543746;2250.0;-2249.9529798259346
0.3120000000000002;-536585637.0;-518356934.0;79927.0;-2844.0588140781656;-2807.4275762609022;-28.95853293553955;0.04311093732667359;7083.333333333333;-7083.290222396006
0.3160000000000002;-547961872.0;-529667358.0;14115.0;-2844.0586528693166;-2807.5563337001754;-35.14754555251875;0.04030221225548303;6416.666666666667;-6416.6263644544115
0.32000000000000023;-559338107.0;-540763550.0;-265929.0;-2844.0584964813565;-2779.85113017075;-89.73680500103637;0.03909699000814726;4750.0;-4749.960903009992
0.32400000000000023;-570714341.0;-552079468.0;-326246.0;-2844.058340189567;-2848.936349662554;-26.441858145958122;0.039072947402019054;750.0;-749.960927052598
0.32800000000000024;-582090574.0;-563664551.0;-117397.0;-2844.0581817831107;-2882.8170860607856;27.488538630350376;0.03960161404847895;-4666.666666666667;4666.706268280715
0.33200000000000024;-593466807.0;-575123291.0;-34891.0;-2844.058020917645;-2860.836047941955;13.42823364230162;0.040216366414824734;-7500.0;7500.040216366415
0.33600000000000024;-604843039.0;-586565552.0;31137.0;-2844.0578581308905;-2879.4884075967802;38.41944066615815;0.040696688643038215;-4750.0;4750.040696688643
0.34000000000000025;-616219270.0;-598046265.0;135617.0;-2844.0576941057193;-2846.815327816735;15.776602498921875;0.041006292804013356;-666.6666666666666;666.7076729594706
0.34400000000000025;-627595501.0;-609224854.0;-62025.0;-2844.057529317837;-2780.535260314191;-69.47693373712218;0.04119697052828997;4083.3333333333335;-4083.292136362805
0.34800000000000025;-638971731.0;-620485840.0;-177270.0;-2844.057363976108;-2836.284785731366;-24.790763999624232;0.04133543234274839;5666.666666666667;-5666.625331234324
0.35200000000000026;-650347960.0;-631900635.0;-138706.0;-2844.0571981012895;-2848.414029771323;-8.959210956648349;0.0414687045804385;3166.6666666666665;-3166.625197962086
0.35600000000000026;-661724189.0;-643200073.0;-215497.0;-2844.0570316317617;-2812.5628826823913;-52.1821284957482;0.04161738195307407;-1166.6666666666667;1166.7082840486198
0.36000000000000026;-673100417.0;-654741211.0;-50588.0;-2844.0568644966042;-2901.2512745239464;52.3376934533112;0.04178378935648652;-4416.666666666667;4416.7084504560235
0.36400000000000027;-684476644.0;-666359253.0;191225.0;-2844.056696649428;-2894.0195001028064;68.32013376211262;0.04196179406790179;-5333.333333333333;5333.375295127401
0.36800000000000027;-695852871.0;-677565308.0;21052.0;-2844.0565280724254;-2788.3404108471777;-53.6953960799583;0.0421442506421954;-1333.3333333333333;1333.3754775839755
0.3720000000000003;-707229097.0;-688897705.0;-22778.0;-2844.0563587658776;-2836.399919868388;-9.843398926363989;0.0423266369580233;3000.0;-2999.957673363042
0.3760000000000003;-718605322.0;-700164185.0;-132524.0;-2844.0561887378885;-2821.6243861936864;-35.154379739095475;0.04250699726071616;7083.333333333333;-7083.290826336072
0.3800000000000003;-729981546.0;-711315308.0;-357627.0;-2844.0560179973154;-2770.06577982192;-108.32270452253351;0.04268514328487072;3666.6666666666665;-3666.6239815233816
0.3840000000000003;-741357770.0;-722598267.0;-450892.0;-2844.05584654978;-2826.545661922007;-60.796092116175714;0.042861883798650524;1000.0;-999.9571381162013
0.3880000000000003;-752733994.0;-733985596.0;-439787.0;-2844.0556743978586;-2867.1252185856083;-19.150284435867434;0.043037980390181474;166.66666666666666;-166.62362868627648
0.3920000000000003;-764110216.0;-745444336.0;-357271.0;-2844.0555015425552;-2857.730371069277;-20.623424229522243;0.0432138258474879;-4750.0;4750.0432138258475
0.3960000000000003;-775486438.0;-756968994.0;-208837.0;-2844.0553279839014;-2867.4407327849376;3.336773912814351;0.04338966346040252;-7333.333333333333;7333.376722996793
0.4000000000000003;-786862659.0;-768389282.0;-164771.0;-2844.0551537224633;-2865.5398899984207;5.666440256326496;0.04356535953320417;-2500.0;2500.043565359533
0.4040000000000003;-798238880.0;-779771118.0;-159156.0;-2844.0549787585223;-2848.3517515201834;-10.982484388717694;0.04374098523385328;1333.3333333333333;-1333.2895923480994
0.4080000000000003;-809615099.0;-791147461.0;-159034.0;-2844.054803092896;-2836.5622398111286;-22.760109561938407;0.043916406639255;2166.6666666666665;-2166.6227502600273
0.4120000000000003;-820991318.0;-802435913.0;-246803.0;-2844.054626726495;-2838.9109635440445;-28.837034590982057;0.04409160021623393;3250.0;-3249.9559083997838
0.4160000000000003;-832367537.0;-813784790.0;-274145.0;-2844.0544496606385;-2852.939961303313;-17.432692892350133;0.04426646410138346;2083.3333333333335;-2083.289066869232
0.4200000000000003;-843743754.0;-825347900.0;-87254.0;-2844.0542718961738;-2873.439349049125;21.008407493079176;0.04444111618795432;-2666.6666666666665;2666.7111077828545
0.4240000000000003;-855119971.0;-836872559.0;61187.0;-2844.0540934342957;-2882.233953028131;44.05352481082855;0.04461546950551565;-4916.666666666667;4916.7112821361725
0.4280000000000003;-866496187.0;-848402710.0;215121.0;-2844.053914275757;-2897.335671399053;73.93308521863219;0.044789634671360545;-3666.6666666666665;3666.711456301338
0.43200000000000033;-877872403.0;-859877930.0;314125.0;-2844.0537344215627;-2854.641444585357;40.74342113894636;0.04496354858929408;-1166.6666666666667;1166.711630215256
0.43600000000000033;-889248618.0;-871133423.0;193402.0;-2844.053553872499;-2807.1297728632153;-18.357479152910855;0.04513726594268519;3583.3333333333335;-3583.288196067391
0.44000000000000034;-900624832.0;-882482300.0;166063.0;-2844.053372629915;-2855.6188340561635;27.507218165655104;0.04531064598722878;5583.333333333333;-5583.288022687346
0.44400000000000034;-912001045.0;-893710327.0;17875.0;-2844.0531906942833;-2799.7924959739194;-42.54498709663039;0.04548390791114798;4416.666666666667;-4416.621182758756
0.44800000000000034;-923377258.0;-904844971.0;-223694.0;-2844.0530080668277;-2785.6168986818393;-79.91102687540433;0.04565686390378687;3916.6666666666665;-3916.6210098027627
0.45200000000000035;-934753469.0;-916386108.0;-58770.0;-2844.052824748334;-2896.3148153117877;46.61977596040879;0.04582962344557018;-1083.3333333333333;1083.3791629567788
0.45600000000000035;-946129681.0;-927938232.0;117142.0;-2844.0526407398074;-2878.959237675198;46.151933221206036;0.04600213162575528;-5416.666666666667;5416.712668798293
0.46000000000000035;-957505891.0;-939232178.0;34876.0;-2844.0524560421263;-2817.655585644928;-23.04907122103532;0.04617442027665675;-5666.666666666667;5666.712841086944
0.46400000000000036;-968882101.0;-950767822.0;194309.0;-2844.052270656077;-2895.049791728674;69.65088714043759;0.04634651236301579;-1250.0;1250.046346512363
0.46800000000000036;-980258309.0;-962138672.0;188949.0;-2844.0520845827896;-2837.4040749586948;11.490795337013424;0.04651832182389626;2166.6666666666665;-2166.6201483448426
0.47200000000000036;-991634518.0;-973196411.0;-129521.0;-2844.051897823112;-2765.953470186239;-90.53274378093101;0.04668991937251121;4666.666666666667;-4666.6199767472945
0.47600000000000037;-1003010725.0;-984589233.0;-112908.0;-2844.051710377767;-2856.2456375805687;1.3544579548015463;0.04686133627274103;3666.6666666666665;-3666.619805330394
0.48000000000000037;-1014386932.0;-995993042.0;-85307.0;-2844.0515222480117;-2857.5224315686423;5.281134970389303;0.04703243882886454;1916.6666666666667;-1916.6196342278379
0.4840000000000004;-1025763137.0;-1007297974.0;-156582.0;-2844.0513334343473;-2831.405033715495;-27.678475170055208;0.04720341610209289;-3416.6666666666665;3416.7138700827686
0.4880000000000004;-1037139343.0;-1018894043.0;63281.0;-2844.051143937842;-2892.0110872586197;54.034614769955624;0.047374126324939425;-5750.0;5750.047374126325
0.4920000000000004;-1048515547.0;-1030358276.0;151309.0;-2844.050953759375;-2860.9499386978587;31.42434328959689;0.04754461679112865;-2666.6666666666665;2666.7142112834576
