Zeit[sec];Sollposition[°];Istposition[°];Positionsschleppfehler[°];Sollgeschwindigkeit[°/s];Istgeschwindigkeit[°/s];Geschwindigkeitsdifferenz[°/s];Sollbeschleunigung[°/s*s];Istbeschleunigung[°/s*s];Beschleunigungsdifferenz[°/s*s]
0.0;-9979199999.0;-9979200439.0;440.0;0.0;0.7938786005079747;-0.7674786004832199;0.0;-83.33333333333333;83.33333333333333
0.004;-9979199999.0;-9979211426.0;11427.0;0.0;-4.813229203097523;5.498849203052956;0.0;0.0;0.0
0.008;-9979199999.0;-9979200439.0;440.0;0.0;0.8506425651237369;-0.8242425650989822;0.0;0.0;0.0
0.012;-9979199999.0;-9979200439.0;440.0;0.0;-0.3323755577877164;0.35877555781247117;0.0;0.0;0.0
0.016;-9979199999.0;-9979200439.0;440.0;0.0;-0.10715327368676662;0.1335532737115214;0.0;0.0;0.0
0.02;-9979199999.0;-9979200439.0;440.0;0.0;1.2736748484000564;-1.2472748483753016;0.0;0.0;0.0
0.024;-9979199999.0;-9979200439.0;440.0;0.0;1.647459463134408;-1.621059463109653;0.0;0.0;0.0
0.028;-9979199999.0;-9979200439.0;440.0;0.0;0.3262642815709114;-0.29986428154615663;0.0;0.0;0.0
0.032;-9979199999.0;-9979200439.0;440.0;0.0;-0.5828888506740332;0.6092888506987879;0.0;0.0;0.0
0.036000000000000004;-9979199999.0;-9979200439.0;440.0;0.0;-2.2549735132455826;2.281373513270337;0.0;0.0;0.0
0.04000000000000001;-9979199999.0;-9979194946.0;-5053.0;0.0;1.7778361454084517;-2.0810161454610663;0.0;0.0;0.0
0.04400000000000001;-9979199999.0;-9979194946.0;-5053.0;0.0;2.2909021593332293;-2.5940821593858443;0.0;0.0;0.0
0.048000000000000015;-9979199999.0;-9979200439.0;440.0;0.0;0.5116640600189567;-0.4852640599942019;0.0;0.0;0.0
0.05200000000000002;-9979199999.0;-9979205933.0;5934.0;0.0;-3.5259813067093493;3.882021306725912;0.0;0.0;0.0
0.05600000000000002;-9979199999.0;-9979200439.0;440.0;0.0;-0.8440646267980337;0.8704646268227885;0.0;0.0;0.0
0.060000000000000026;-9979304441.0;-9979200439.0;440.0;-26.110444531212682;0.942437941275537;-0.9160379412507823;-6527.61113280317;0.0;-6527.61113280317
0.06400000000000003;-9979400027.0;-9979200439.0;-40970.0;-23.896546268218355;-1.127329538397491;-11.683253742564897;553.4745657485818;0.0;553.4745657485818
0.06800000000000003;-9979519549.0;-9979233398.0;-108329.0;-29.880364371449595;-11.412993219643832;-20.166424356455835;-1495.95452580781;-166.66666666666666;-1329.2878591411434
0.07200000000000004;-9979648303.0;-9979260864.0;-185992.0;-32.18855075393649;-6.340377819381654;-31.101150889839015;-577.0465956217237;-750.0;172.95340437827633
0.07600000000000004;-9979780302.0;-9979315796.0;-254102.0;-32.9996044265057;-10.178840848259629;-35.827741924233024;-202.76341814230216;-916.6666666666666;713.9032485243645
0.08000000000000004;-9979916334.0;-9979420166.0;-279718.0;-34.008062708763696;-23.846482238113882;-25.433194094634718;-252.1145705644994;-1416.6666666666667;1164.5520961021673
0.08400000000000005;-9980053451.0;-9979535522.0;-297941.0;-34.279223609884;-25.839295204930007;-25.431854905761913;-67.79022528007594;-1500.0;1432.209774719924
0.08800000000000005;-9980181527.0;-9979656372.0;-313530.0;-32.01896676706926;-27.92855213341862;-24.992912700477113;565.0642107036851;-1583.3333333333333;2148.3975440370186
0.09200000000000005;-9980291807.0;-9979760742.0;-342686.0;-27.57017903584713;-27.995921625293793;-25.946716629515503;1112.1969328055322;-583.3333333333334;1695.5302661388657
0.09600000000000006;-9980375887.0;-9979843140.0;-381361.0;-21.020022551611934;-19.580299131259324;-33.56969650512417;1637.5391210587989;250.0;1387.5391210587989
0.10000000000000006;-9980418563.0;-9979947510.0;-376987.0;-10.66878842590869;-24.723816249080002;-22.89461520266279;2587.808531425811;583.3333333333334;2004.4751980924775
0.10400000000000006;-9980410050.0;-9980002441.0;-389874.0;2.128203996759614;-15.708070387877525;-24.6386693940561;3199.2481056670763;750.0;2449.2481056670763
0.10800000000000007;-9980354375.0;-9980046387.0;-368550.0;13.918668948701058;-10.606946060486138;-17.16168658540762;2947.616237985361;916.6666666666666;2030.9495713186943
0.11200000000000007;-9980261541.0;-9980035400.0;-352625.0;23.208464288401565;0.5241842084154487;-14.95372746161649;2322.448834925127;1666.6666666666667;655.7821682584602
0.11600000000000008;-9980142731.0;-9980018921.0;-298972.0;29.70252630899406;5.542121960051358;-5.947599067704985;1623.5155051481236;1583.3333333333333;40.18217181479034
0.12000000000000008;-9980008986.0;-9980007935.0;-207043.0;33.43615188176222;2.5795726337954403;10.7266733814299;933.4063931920405;1416.6666666666667;-483.2602734746263
0.12400000000000008;-9979869033.0;-9979958496.0;-131902.0;34.98845259234558;12.583116487018764;10.647562879073089;388.07517764584;833.3333333333334;-445.2581556874934
0.12800000000000009;-9979727965.0;-9979936523.0;-17757.0;35.266901503397854;7.532712880492211;25.43160526609379;69.61222776306819;500.0;-430.3877722369318
0.1320000000000001;-9979592214.0;-9979876099.0;62178.0;33.937706006923634;13.090541867777706;25.729895855052686;-332.2988741185551;666.6666666666666;-998.9655407852217
0.1360000000000001;-9979473787.0;-9979832153.0;157186.0;29.606811433527614;11.08262180800736;33.08680291317485;-1082.7236433490048;333.3333333333333;-1416.0569766823382
0.1400000000000001;-9979381697.0;-9979777222.0;231168.0;23.0224995265882;11.500940412573517;34.59750182102614;-1646.0779767348538;416.6666666666667;-2062.7446434015205
0.1440000000000001;-9979316928.0;-9979705811.0;267843.0;16.19235192098823;17.355022348217666;25.73716862956025;-1707.536901399992;250.0;-1957.536901399992
0.1480000000000001;-9979277343.0;-9979661865.0;305309.0;9.89604474270903;11.526614769108594;27.1449579055021;-1574.0767945698;250.0;-1824.0767945698
0.1520000000000001;-9979258675.0;-9979639893.0;338281.0;4.667207986628665;4.0455776421129706;29.987267258717967;-1307.2091890200911;-416.6666666666667;-890.5425223534245
0.1560000000000001;-9979254079.0;-9979628906.0;358734.0;1.14880469174187;-0.9766902449801564;30.360515339334828;-879.6008237216988;-916.6666666666666;37.065842944967784
0.16000000000000011;-9979256523.0;-9979634399.0;377438.0;-0.6108916534767862;-3.800557018660009;29.74969078928701;-439.92408630466406;-1166.6666666666667;726.7425803620027
0.16400000000000012;-9979260848.0;-9979617920.0;362845.0;-1.0813493391693028;1.4200502101108432;20.822378020411865;-117.61442142312914;-666.6666666666666;549.0522452435375
0.16800000000000012;-9979264354.0;-9979623413.0;365190.0;-0.8765059914948439;-2.1484938120022417;23.27278375782643;51.210836918614724;-333.3333333333333;384.54417025194806
0.17200000000000013;-9979266274.0;-9979623413.0;361200.0;-0.4800016763382056;0.49694560645520686;20.177678828977484;99.12607878915956;-83.33333333333333;182.4594121224929
0.17600000000000013;-9979266892.0;-9979623413.0;358319.0;-0.15445915486687403;-1.1098176782280207;21.888459198289993;81.3856303678329;0.0;81.3856303678329
0.18000000000000013;-9979266804.0;-9979612427.0;345919.0;0.022007578976749903;1.9810371752977372;18.420850404079157;44.11668346090598;0.0;44.11668346090598
0.18400000000000014;-9979266507.0;-9979612427.0;345574.0;0.07430452360269399;0.22078691697120667;20.427252755100795;13.074236156486021;166.66666666666666;-153.59243051018063
0.18800000000000014;-9979266270.0;-9979595947.0;329261.0;0.05914833943313403;5.180248489946127;14.617120025678641;-3.7890460423899897;83.33333333333333;-87.12237937572331
0.19200000000000014;-9979266173.0;-9979579468.0;313054.0;0.024434738010065002;4.481455760806799;14.369773145161126;-8.678400355767257;333.3333333333333;-342.0117336891006
0.19600000000000015;-9979266187.0;-9979546509.0;280277.0;-0.003696785118587645;6.243813346602023;10.61828039806233;-7.032880782163161;500.0;-507.03288078216315
0.20000000000000015;-9979266258.0;-9979513550.0;247371.0;-0.017719564912747905;7.6109054130315785;7.244839015653498;-3.505694948540065;500.0;-503.50569494854005
0.20400000000000015;-9979266340.0;-9979486084.0;219869.0;-0.0203250277586719;4.147960996128619;9.0350872387855;-0.6513657114809983;416.6666666666667;-417.3180323781477
0.20800000000000016;-9979266408.0;-9979480591.0;214301.0;-0.0171518995788385;1.997575632236898;10.841813942277508;0.7932820449583498;-416.6666666666667;417.45994871162503
0.21200000000000016;-9979266459.0;-9979486084.0;219718.0;-0.012767936185403006;-1.3364043187871575;14.500432653166701;1.0959908483588734;-583.3333333333334;584.4293241816922
0.21600000000000016;-9979266497.0;-9979475098.0;208670.0;-0.00950199481638527;0.6684836327582598;11.836284048137816;0.816485342254434;-666.6666666666666;667.483152008921
0.22000000000000017;-9979266529.0;-9979475098.0;208624.0;-0.007862688516868506;1.8688334341943265;10.637107837151866;0.409826574879191;-166.66666666666666;167.07649324154585
0.22400000000000017;-9979266558.0;-9979486084.0;219575.0;-0.007423516062883115;-2.0664627272784712;15.232091555479006;0.1097931134963477;0.0;0.1097931134963477
0.22800000000000017;-9979266589.0;-9979480591.0;214051.0;-0.007546332785756677;1.7565582130625845;11.078803618128214;-0.030704180718390442;-83.33333333333333;83.30262915261494
0.23200000000000018;-9979266620.0;-9979486084.0;219514.0;-0.007755914901363911;-3.005793274343014;16.16915849010723;-0.052395528901808416;83.33333333333333;-83.38572886223514
0.23600000000000018;-9979266651.0;-9979480591.0;213990.0;-0.007827469912900209;-0.5694808373451233;13.401252128182092;-0.017888752884074502;0.0;-0.017888752884074502
0.24000000000000019;-9979266682.0;-9979475098.0;208466.0;-0.007724369987491505;2.126080599799752;10.374096342915472;0.025774981352175846;0.0;0.025774981352175846
0.2440000000000002;-9979266712.0;-9979442139.0;175476.0;-0.007499851026518734;11.56023834849894;-1.0394645216750398;0.05612974024319273;166.66666666666666;-166.61053692642346
0.2480000000000002;-9979266741.0;-9979425659.0;158965.0;-0.0072225148355700795;5.384829469636083;4.145434574507757;0.06933404773716371;583.3333333333334;-583.2639992855962
0.25200000000000017;-9979266768.0;-9979420166.0;153443.0;-0.006940416581996337;3.17911560215801;6.020073190762982;0.07052456339343562;166.66666666666666;-166.59614210327322
0.25600000000000017;-9979266795.0;-9979403687.0;136935.0;-0.006674645647599954;1.3104104132652283;6.898577294418115;0.06644273359909586;83.33333333333333;-83.26689059973424
0.2600000000000002;-9979266821.0;-9979387207.0;120428.0;-0.006427256725058657;1.9943929929807782;5.224450311612612;0.06184723063532406;-333.3333333333333;333.39518056396867
0.2640000000000002;-9979266846.0;-9979370728.0;103923.0;-0.006191868465789292;2.5993533362448216;3.6294485466853685;0.058847064817341276;83.33333333333333;-83.27448626851599
0.2680000000000002;-9979266869.0;-9979376221.0;109390.0;-0.005961203604797477;-1.2398558598682285;7.796920481438564;0.057666215247953845;-333.3333333333333;333.39099954858125
0.2720000000000002;-9979266892.0;-9979376221.0;109366.0;-0.0057304660317490964;-0.5290096273720265;7.084867834740389;0.0576843932620951;-250.0;250.0576843932621
0.2760000000000002;-9979266914.0;-9979376221.0;109343.0;-0.005497728011525504;-0.47563361610472205;7.030342544868357;0.05818450505589812;-250.0;250.0581845050559
0.2800000000000002;-9979266935.0;-9979376221.0;109320.0;-0.005262966460934136;0.012120516993105412;6.541439942092503;0.05869038764784191;0.0;0.05869038764784191
0.2840000000000002;-9979266956.0;-9979376221.0;109299.0;-0.005026931583733191;1.631930346943438;4.920603640735497;0.05900871930023628;-83.33333333333333;83.39234205263357
0.2880000000000002;-9979266975.0;-9979376221.0;109278.0;-0.004790394935633976;0.30130069226026535;6.250208549963043;0.05913416202480391;0.0;0.05913416202480391
0.2920000000000002;-9979266993.0;-9979370728.0;103765.0;-0.004553836069961921;0.31661063743382695;5.904354831052723;0.059139716418013605;83.33333333333333;-83.27419361691531
0.2960000000000002;-9979267010.0;-9979359741.0;92759.0;-0.004317431861680018;2.0184553518891333;3.542386659147372;0.05910105207047574;166.66666666666666;-166.60756561459618
0.3000000000000002;-9979267027.0;-9979332275.0;65275.0;-0.004081169037952544;8.478287190794944;-4.56624868234986;0.05906570593186859;250.0;-249.94093429406814
0.3040000000000002;-9979267042.0;-9979315796.0;48779.0;-0.0038449668076055397;4.412761982060969;-1.4902471246514817;0.05905055758675102;416.6666666666667;-416.6076161090799
0.3080000000000002;-9979267056.0;-9979304810.0;37777.0;-0.003608748130483836;1.2363383325859905;1.026292764488322;0.0590546692804259;250.0;-249.9409453307196
0.3120000000000002;-9979267070.0;-9979288330.0;21283.0;-0.003372468859981663;5.206768671825528;-3.933541365701621;0.05906981762554325;-166.66666666666666;166.7257364842922
0.3160000000000002;-9979267082.0;-9979282837.0;15776.0;-0.0031361177430426477;2.7964326516315343;-1.8533891028207985;0.059087779234753855;-250.0;250.05908777923474
0.32000000000000023;-9979267094.0;-9979288330.0;21255.0;-0.0028997017046245577;-1.756033988237381;3.0280538444090563;0.05910400960452251;-333.3333333333333;333.39243734293785
0.32400000000000023;-9979267105.0;-9979282837.0;15750.0;-0.002663233151943394;2.060496652841568;-1.1185404201152047;0.05911713817029088;-83.33333333333333;83.39245047150362
0.32800000000000024;-9979267114.0;-9979293823.0;26725.0;-0.0024267236265954374;-2.911879522614181;4.51257219173832;0.059127381336989186;-250.0;250.059127381337
0.33200000000000024;-9979267123.0;-9979293823.0;26715.0;-0.0021901812076980825;-0.2632497072592378;1.8635788608979982;0.05913560472433873;-83.33333333333333;83.39246893805766
0.33600000000000024;-9979267131.0;-9979282837.0;15719.0;-0.0019536113775095627;4.7811625882610675;-3.840356912217626;0.05914245754712994;0.0;0.05914245754712994
0.34000000000000025;-9979267138.0;-9979299316.0;32190.0;-0.0017170155787294137;0.0898894843235612;1.8394127446920467;0.05914894969503726;-83.33333333333333;83.39248228302837
0.34400000000000025;-9979267144.0;-9979288330.0;21196.0;-0.0014803966967567043;2.665826031424105;-1.3959272224670258;0.05915472049317734;166.66666666666666;-166.60751194617347
0.34800000000000025;-9979267149.0;-9979282837.0;15697.0;-0.0012437576169905054;4.047405472539365;-3.1072100587630387;0.059159769941549735;0.0;0.059159769941549735
0.35200000000000026;-9979267153.0;-9979288330.0;21184.0;-0.0010071000706702586;-0.05247280576825142;1.3221248463361484;0.05916438658006169;166.66666666666666;-166.6075022800866
0.35600000000000026;-9979267156.0;-9979282837.0;15686.0;-0.000770428962974383;-0.6219388447105885;1.5619475316350444;0.05916777692396889;-83.33333333333333;83.3925011102573
0.36000000000000026;-9979267158.0;-9979282837.0;15683.0;-0.0005337463136822275;-0.7790934439748526;1.7191587936939858;0.05917066232303888;0.0;0.05917066232303888
0.36400000000000027;-9979267159.0;-9979271851.0;4694.0;-0.00029705587381258306;1.7872173060551286;-1.5062552807682523;0.05917260996741112;-83.33333333333333;83.39250594330073
0.36800000000000027;-9979267159.0;-9979277344.0;10186.0;-6.036139438424065e-05;-3.1166799410656094;3.7273986520474254;0.0591736198570856;83.33333333333333;-83.27415971347624
0.3720000000000003;-9979267159.0;-9979271851.0;4692.0;0.00017633423920372976;0.29752306060492995;-0.01620765761907844;0.0591739083969926;0.0;0.0591739083969926
0.3760000000000003;-9979267157.0;-9979282837.0;15678.0;0.0004130269873926302;-3.325974509112537;4.266686607027994;0.059173187047225115;0.0;0.059173187047225115
0.3800000000000003;-9979267154.0;-9979277344.0;10187.0;0.0006497139647833908;0.4311652398183942;0.18032355253912863;0.05917174434769014;-83.33333333333333;83.39250507768102
0.3840000000000003;-9979267151.0;-9979282837.0;15682.0;0.0008863914203572203;1.6811674735695123;-0.7397419907594288;0.05916936389345739;-166.66666666666666;166.72583603056012
0.3880000000000003;-9979267146.0;-9979277344.0;10192.0;0.0011230567572549559;1.07885971865803;-0.46659755259979996;0.05916633422443389;166.66666666666666;-166.6075003324422
0.3920000000000003;-9979267141.0;-9979282837.0;15689.0;0.0013597068015376208;0.5431665957570077;0.39915224301984453;0.05916251107066623;-83.33333333333333;83.392495844404
0.3960000000000003;-9979267135.0;-9979271851.0;4708.0;0.0015963360709469816;3.2028641122356056;-2.9191686141426803;0.059157317352340213;333.3333333333333;-333.27417601598097
0.4000000000000003;-9979267127.0;-9979271851.0;4713.0;0.001832944854022946;0.3625312897339463;-0.07829914968710572;0.05915219576899111;-83.33333333333333;83.39248552910232
0.4040000000000003;-9979267119.0;-9979260864.0;-6267.0;0.0020695265143476525;4.301965301848948;-4.676296540578342;0.0591454150811766;83.33333333333333;-83.27418791825215
0.4080000000000003;-9979267110.0;-9979260864.0;-6259.0;0.002306079320681659;-2.6028216281458736;2.2292069875046;0.05913820158350166;83.33333333333333;-83.27419513174982
0.4120000000000003;-9979267100.0;-9979238892.0;-28223.0;0.0025426000990859893;4.2186290084049105;-5.909847078622319;0.05913019460108255;83.33333333333333;-83.27420313873225
0.4160000000000003;-9979267088.0;-9979222412.0;-44693.0;0.002779083944382224;6.901658381305635;-9.580839911278884;0.05912096132405862;166.66666666666666;-166.6075457053426
0.4200000000000003;-9979267076.0;-9979238892.0;-28202.0;0.00301552912533092;-2.267678243666887;0.5781932200526723;0.059111295237174045;-250.0;250.0591112952372
0.4240000000000003;-9979267063.0;-9979244385.0;-22697.0;0.0032519321794531953;-2.4438985473513606;1.0849499924891641;0.05910076353056882;-250.0;250.05910076353058
0.4280000000000003;-9979267049.0;-9979244385.0;-22685.0;0.0034882887786504436;-2.377119781114161;1.019127654899591;0.059089149799312075;-166.66666666666666;166.72575581646598
0.43200000000000033;-9979267034.0;-9979260864.0;-6193.0;0.003724596614603409;-3.3709578408151866;3.0027220995029786;0.05907695898824138;-250.0;250.05907695898824
0.43600000000000033;-9979267019.0;-9979260864.0;-6178.0;0.003960851936293301;-5.247233771242201;4.880134367430594;0.05906383042247301;166.66666666666666;-166.60760283624418
0.44000000000000034;-9979267002.0;-9979260864.0;-6163.0;0.004197051281241237;-0.2604403734728694;-0.10552274300582593;0.059049836236983996;-250.0;250.059049836237
0.44400000000000034;-9979266984.0;-9979260864.0;-6147.0;0.004433191764048144;0.19895544387400152;-0.5637223269704501;0.059035120701726645;250.0;-249.94096487929826
0.44800000000000034;-9979266965.0;-9979260864.0;-6130.0;0.0046692693451553255;0.37576700780540706;-0.7392777144978914;0.05901939527679545;-83.33333333333333;83.39235272861012
0.45200000000000035;-9979266946.0;-9979249878.0;-17098.0;0.004905281427703619;2.155703551158309;-3.1770581419954866;0.0590030206370734;333.3333333333333;-333.27433031269624
0.45600000000000035;-9979266925.0;-9979244385.0;-22572.0;0.005141223683594418;3.8323695679456;-5.181928106774057;0.058985563972699814;83.33333333333333;-83.27434776936063
0.46000000000000035;-9979266904.0;-9979244385.0;-22552.0;0.005377094670128191;1.9184841549992562;-3.266606708957303;0.05896774663344305;0.0;0.05896774663344305
0.46400000000000036;-9979266881.0;-9979233398.0;-33518.0;0.005612888327966888;1.8967811973169446;-3.9026278369326235;0.05894841445967434;83.33333333333333;-83.27438491887365
0.46800000000000036;-9979266858.0;-9979222412.0;-44482.0;0.005848604080030694;3.4335016262307763;-6.096952425200049;0.05892893801595156;0.0;0.05892893801595156
0.47200000000000036;-9979266834.0;-9979222412.0;-44459.0;0.006084236732601287;1.3040724324956536;-3.9659074681328375;0.05890816314264814;83.33333333333333;-83.27442517019068
0.47600000000000037;-9979266808.0;-9979222412.0;-44436.0;0.006319783977359408;2.1115542719811202;-4.771773624386336;0.05888681118953022;-166.66666666666666;166.72555347785618
0.48000000000000037;-9979266782.0;-9979238892.0;-27931.0;0.006555242063286265;-2.7967970623224976;1.1271133091404013;0.058864521481714414;-166.66666666666666;166.72553118814838
0.4840000000000004;-9979266755.0;-9979222412.0;-44385.0;0.006790607527902977;8.301262162595988;-10.957950403330381;0.058841366154177954;-166.66666666666666;166.72550803282084
0.4880000000000004;-9979266727.0;-9979249878.0;-16892.0;0.007025877485810473;-3.1658110428750517;2.1589382240947135;0.058817489476874034;0.0;0.058817489476874034
