Zeit[sec];Sollposition[°];Istposition[°];Positionsschleppfehler[°];Sollgeschwindigkeit[°/s];Istgeschwindigkeit[°/s];Geschwindigkeitsdifferenz[°/s];Sollbeschleunigung[°/s*s];Istbeschleunigung[°/s*s];Beschleunigungsdifferenz[°/s*s]
0.0;9817499999.0;9817503662.0;-3663.0;0.0;1.3127964717447758;-1.5325764717951118;0.0;0.0;0.0
0.004;9817499999.0;9817498169.0;1830.0;0.0;-2.012532425247133;2.1223324252587776;0.0;0.0;0.0
0.008;9817499999.0;9817509155.0;-9156.0;0.0;7.172471688702703;-7.721831688678765;0.0;-83.33333333333333;83.33333333333333
0.012;9817499999.0;9817492676.0;7323.0;0.0;-4.00230481159687;4.441684811602368;0.0;83.33333333333333;-83.33333333333333
0.016;9817499999.0;9817503662.0;-3663.0;0.0;2.004485976740718;-2.224265976791054;0.0;0.0;0.0
0.02;9817499999.0;9817503662.0;-3663.0;0.0;1.3445271214693786;-1.5643071215197146;0.0;83.33333333333333;-83.33333333333333
0.024;9817499999.0;9817498169.0;1830.0;0.0;0.2141025105640292;-0.10430251055238453;0.0;-83.33333333333333;83.33333333333333
0.028;9817499999.0;9817498169.0;1830.0;0.0;0.5622752656340599;-0.45247526562241525;0.0;0.0;0.0
0.032;9817499999.0;9817498169.0;1830.0;0.0;-0.4808402502536774;0.5906402502653221;0.0;0.0;0.0
0.036000000000000004;9817499999.0;9817498169.0;1830.0;0.0;0.06686609529703856;0.04293390471460612;0.0;0.0;0.0
0.04000000000000001;9817499999.0;9817498169.0;1830.0;0.0;1.0761183131709695;-0.9663183131593248;0.0;0.0;0.0
0.04400000000000001;9817499999.0;9817503662.0;-3663.0;0.0;3.4308537972718476;-3.650633797322184;0.0;0.0;0.0
0.048000000000000015;9817499999.0;9817503662.0;-3663.0;0.0;2.036309097625315;-2.2560890976756514;0.0;0.0;0.0
0.05200000000000002;9817499999.0;9817498169.0;1830.0;0.0;-2.246658358000219;2.3564583580118637;0.0;0.0;0.0
0.05600000000000002;9817499999.0;9817498169.0;1830.0;0.0;-1.8071498773917556;1.9169498774034002;0.0;0.0;0.0
0.060000000000000026;9817437171.0;9817498169.0;1830.0;-15.70706961722911;-1.6752129684090615;1.7850129684207061;-3926.7674043072775;0.0;-3926.7674043072775
0.06400000000000003;9817380900.0;9817503662.0;-28574.0;-14.067696660919538;1.3762438931465149;-9.318291573504139;409.8432390773929;0.0;409.8432390773929
0.06800000000000003;9817311560.0;9817476196.0;-60968.0;-17.335205742275708;-5.345108950205147;-13.278021293951902;-816.8772703390425;-166.66666666666666;-650.2106036723759
0.07200000000000004;9817237814.0;9817448730.0;-94993.0;-18.436412328796706;-7.155414307571948;-13.916984350245496;-275.3016466302496;-500.0;224.6983533697504
0.07600000000000004;9817162752.0;9817421265.0;-138539.0;-18.765423147752927;-6.127828139059246;-19.937183247354515;-82.2527047390551;-583.3333333333334;501.08062859427827
0.08000000000000004;9817085842.0;9817377319.0;-168835.0;-19.22765853734393;-9.385227068968117;-19.305280526447554;-115.55884739775112;-583.3333333333334;467.7744859355822
0.08400000000000005;9817009192.0;9817322388.0;-189691.0;-19.16230605811193;-13.226956427663564;-17.101268031903572;16.33811980800015;-416.6666666666667;433.00478647466684
0.08800000000000005;9816939014.0;9817278442.0;-222541.0;-17.544496327446822;-10.96866479127109;-21.582834098683847;404.45243266627705;-416.6666666666667;821.1190993329437
0.09200000000000005;9816880285.0;9817212524.0;-230708.0;-14.682452403937134;-19.284678179211916;-13.079054523683723;715.5109808774221;-250.0;965.5109808774221
0.09600000000000006;9816835665.0;9817157593.0;-241454.0;-11.15477438286469;-16.271123897477985;-14.63533608766059;881.9195052681108;-333.3333333333333;1215.2528386014442
0.10000000000000006;9816808501.0;9817124634.0;-261697.0;-6.791183718068957;-9.229958715736867;-19.772414261453548;1090.8976661989334;83.33333333333333;1007.5643328656
0.10400000000000006;9816799691.0;9817069702.0;-244547.0;-2.202486148357835;-11.918719490855933;-12.199449362847302;1147.1743924277807;83.33333333333333;1063.8410590944472
0.10800000000000007;9816808597.0;9817042236.0;-237070.0;2.226485471536395;-7.947095923379064;-11.274508820844733;1107.2429049735574;500.0;607.2429049735575
0.11200000000000007;9816837290.0;9817031250.0;-227976.0;7.1732809232880275;-2.437036196015775;-11.714878807622073;1236.6988629379082;500.0;736.6988629379081
0.11600000000000008;9816886329.0;9817014771.0;-194850.0;12.259808678243417;-4.0002784756422045;-3.5288599554830586;1271.6319387388473;666.6666666666666;604.9652720721806
0.12000000000000008;9816951825.0;9817036743.0;-180178.0;16.37390880500293;2.918235585965216;-4.567891014477691;1028.5250316898785;833.3333333333334;195.19169835654503
0.12400000000000008;9817028435.0;9817047729.0;-135719.0;19.152451437432212;5.136436726152897;0.5816044959572606;694.6356581073205;583.3333333333334;111.30232477398715
0.12800000000000009;9817111223.0;9817069702.0;-87886.0;20.697156439862137;5.618674919113517;6.559616569537014;386.1762506074813;583.3333333333334;-197.1570827258521
0.1320000000000001;9817195772.0;9817108154.0;-47344.0;21.137285498650343;10.785937956951559;6.122044354677035;110.03226469705129;416.6666666666667;-306.6344019696154
0.1360000000000001;9817278375.0;9817130127.0;14133.0;20.65074980066985;6.257125633873046;15.453464094859008;-121.63392449512322;500.0;-621.6339244951232
0.1400000000000001;9817357012.0;9817201538.0;26489.0;19.65919800336706;15.411262888632715;7.1198799265751855;-247.88794932569758;666.6666666666666;-914.5546159923642
0.1440000000000001;9817428451.0;9817218018.0;91051.0;17.859605098084575;4.589833261273801;21.133692539740174;-449.89822632062106;333.3333333333333;-783.2315596539544
0.1480000000000001;9817499999.0;9817283936.0;100940.0;17.88723491611675;10.41453778398037;14.593359624810377;6.907454508043642;333.3333333333333;-326.42587882528966
0.1520000000000001;9817499999.0;9817294922.0;161478.0;0.0;4.69462017659843;22.875164202367756;-4471.808729029188;-500.0;-3971.8087290291874
0.1560000000000001;9817499999.0;9817338867.0;160712.0;0.0;6.928825948782265;13.50895791764992;0.0;-83.33333333333333;83.33333333333333
0.16000000000000011;9817555743.0;9817349854.0;150145.0;13.935904834140988;2.478804494045675;6.63470352299082;3483.976208535247;-583.3333333333334;4067.3095418685803
0.16400000000000012;9817557455.0;9817349854.0;172246.0;0.42787235577257976;0.2762631659954786;15.583865352158515;-3377.008119592102;-416.6666666666667;-2960.3414529254355
0.16800000000000012;9817555758.0;9817388306.0;167789.0;-0.4242641255465161;6.3205262381955984;12.245339088903318;-213.03412032977397;-333.3333333333333;120.29921300355934
0.17200000000000013;9817553398.0;9817393799.0;162972.0;-0.5899550808815628;1.2291489864513279;8.718333196893958;-41.42273883376167;-83.33333333333333;41.91059449957166
0.17600000000000013;9817499999.0;9817393799.0;161032.0;-13.349557983485491;1.6587951974496247;7.5181597893287435;-3189.900725650982;-83.33333333333333;-3106.5673923176487
0.18000000000000013;9817499999.0;9817415771.0;116468.0;0.0;4.858346021726728;-3.51823343927731;3337.3894958713727;-166.66666666666666;3504.0561625380396
0.18400000000000014;9817499999.0;9817393799.0;106512.0;0.0;-4.258204770646989;2.6670212389689834;0.0;-333.3333333333333;333.3333333333333
0.18800000000000014;9817499999.0;9817393799.0;106200.0;0.0;-2.0154028458818796;8.309182779562425;0.0;-83.33333333333333;83.33333333333333
0.19200000000000014;9817499999.0;9817404785.0;95214.0;0.0;0.3451458181217313;5.367694181880594;0.0;-166.66666666666666;166.66666666666666
0.19600000000000015;9817499999.0;9817410278.0;89721.0;0.0;2.442477243728936;2.9407827562795363;0.0;0.0;0.0
0.20000000000000015;9817499999.0;9817421265.0;78734.0;0.0;4.559973652340472;0.1640663476712776;0.0;250.0;-250.0
0.20400000000000015;9817499999.0;9817404785.0;95214.0;0.0;-2.0297923561930657;7.742632356195391;0.0;-83.33333333333333;83.33333333333333
0.20800000000000016;9817499999.0;9817404785.0;95214.0;0.0;-3.1802369679510596;8.893076967953384;0.0;0.0;0.0
0.21200000000000016;9817499999.0;9817426758.0;73241.0;0.0;2.2993832750692964;2.0950767248804723;0.0;-166.66666666666666;166.66666666666666
0.21600000000000016;9817499999.0;9817432251.0;67748.0;0.0;3.835342245221138;0.22953775487103245;0.0;83.33333333333333;-83.33333333333333
0.22000000000000017;9817499999.0;9817432251.0;67748.0;0.0;-1.4396645695716144;5.504544569663785;0.0;250.0;-250.0
0.22400000000000017;9817499999.0;9817426758.0;73241.0;0.0;-2.5172442029491067;6.911704202898875;0.0;-83.33333333333333;83.33333333333333
0.22800000000000017;9817499999.0;9817426758.0;73241.0;0.0;0.39466452214121817;3.9997954778085507;0.0;-83.33333333333333;83.33333333333333
0.23200000000000018;9817499999.0;9817443237.0;56762.0;0.0;3.6911651146635416;-0.2854451146953325;0.0;-83.33333333333333;83.33333333333333
0.23600000000000018;9817499999.0;9817443237.0;56762.0;0.0;4.041009235277772;-0.6352892353095632;0.0;83.33333333333333;-83.33333333333333
0.24000000000000019;9817499999.0;9817432251.0;67748.0;0.0;0.36278540223836897;3.7020945978538013;0.0;-83.33333333333333;83.33333333333333
0.2440000000000002;9817499999.0;9817426758.0;73241.0;0.0;-2.1093823825195432;6.503842382469312;0.0;-166.66666666666666;166.66666666666666
0.2480000000000002;9817499999.0;9817443237.0;56762.0;0.0;1.8436528003737331;1.562067199594476;0.0;83.33333333333333;-83.33333333333333
0.25200000000000017;9817499999.0;9817448730.0;51269.0;0.0;0.33182461095601323;2.7443153890183423;0.0;250.0;-250.0
0.25600000000000017;9817499999.0;9817454224.0;45775.0;0.0;3.9544472242817283;-1.207947224242114;0.0;0.0;0.0
0.2600000000000002;9817499999.0;9817459717.0;40282.0;0.0;4.1723858506307;-1.7554658507211944;0.0;0.0;0.0
0.2640000000000002;9817499999.0;9817459717.0;40282.0;0.0;2.0307674080207945;0.3861525918887114;0.0;-83.33333333333333;83.33333333333333
0.2680000000000002;9817499999.0;9817487183.0;12816.0;0.0;5.21166699718684;-4.442706997187488;0.0;333.3333333333333;-333.3333333333333
0.2720000000000002;9817499999.0;9817487183.0;12816.0;0.0;3.8767231021896005;-3.107763102190249;0.0;-83.33333333333333;83.33333333333333
0.2760000000000002;9817499999.0;9817465210.0;34789.0;0.0;-3.325610977053642;5.41295097710555;0.0;-166.66666666666666;166.66666666666666
0.2800000000000002;9817499999.0;9817481689.0;18310.0;0.0;0.8926079911887645;0.20599200881345547;0.0;-333.3333333333333;333.3333333333333
0.2840000000000002;9817499999.0;9817487183.0;12816.0;0.0;8.161931748516858;-7.392971748517507;0.0;-83.33333333333333;83.33333333333333
0.2880000000000002;9817499999.0;9817470703.0;29296.0;0.0;-1.0566195675581693;2.8143795674799685;0.0;166.66666666666666;-166.66666666666666
0.2920000000000002;9817499999.0;9817476196.0;23803.0;0.0;-2.0780753571465613;3.506255357210762;0.0;0.0;0.0
0.2960000000000002;9817499999.0;9817487183.0;12816.0;0.0;4.696668072521686;-3.927708072522335;0.0;0.0;0.0
0.3000000000000002;9817499999.0;9817492676.0;7323.0;0.0;5.867496040642262;-5.428116040636764;0.0;0.0;0.0
0.3040000000000002;9817499999.0;9817487183.0;12816.0;0.0;-0.48353901439905167;1.2524990143984032;0.0;166.66666666666666;-166.66666666666666
0.3080000000000002;9817499999.0;9817487183.0;12816.0;0.0;-2.028114234037697;2.7970742340370487;0.0;83.33333333333333;-83.33333333333333
0.3120000000000002;9817499999.0;9817492676.0;7323.0;0.0;1.434043647572398;-0.9946636475669002;0.0;-83.33333333333333;83.33333333333333
0.3160000000000002;9817499999.0;9817492676.0;7323.0;0.0;2.2108645125404003;-1.7714845125349024;0.0;-166.66666666666666;166.66666666666666
0.32000000000000023;9817499999.0;9817503662.0;-3663.0;0.0;5.902426874622702;-6.122206874673038;0.0;83.33333333333333;-83.33333333333333
0.32400000000000023;9817499999.0;9817498169.0;1830.0;0.0;-0.6736833240166307;0.7834833240282754;0.0;83.33333333333333;-83.33333333333333
0.32800000000000024;9817499999.0;9817487183.0;12816.0;0.0;-1.8257420531585813;2.5947020531579326;0.0;-166.66666666666666;166.66666666666666
0.33200000000000024;9817499999.0;9817492676.0;7323.0;0.0;1.953852758564055;-1.5144727585585571;0.0;-83.33333333333333;83.33333333333333
0.33600000000000024;9817499999.0;9817487183.0;12816.0;0.0;-0.6171413843482733;1.3861013843476246;0.0;-83.33333333333333;83.33333333333333
0.34000000000000025;9817499999.0;9817492676.0;7323.0;0.0;0.2788169269785285;0.16056307302696948;0.0;250.0;-250.0
0.34400000000000025;9817499999.0;9817476196.0;23803.0;0.0;-5.2551161127835515;6.683296112847753;0.0;-83.33333333333333;83.33333333333333
0.34800000000000025;9817499999.0;9817465210.0;34789.0;0.0;-9.705366733916104;11.792706733968013;0.0;0.0;0.0
0.35200000000000026;9817499999.0;9817503662.0;-3663.0;0.0;6.536010957829654;-6.75579095787999;0.0;-83.33333333333333;83.33333333333333
0.35600000000000026;9817499999.0;9817487183.0;12816.0;0.0;-2.6310778283253313;3.400037828324683;0.0;166.66666666666666;-166.66666666666666
0.36000000000000026;9817499999.0;9817503662.0;-3663.0;0.0;3.4196131163388492;-3.6393931163891855;0.0;0.0;0.0
0.36400000000000027;9817499999.0;9817503662.0;-3663.0;0.0;3.6899115146324037;-3.90969151468274;0.0;0.0;0.0
0.36800000000000027;9817499999.0;9817503662.0;-3663.0;0.0;-2.917566731669009;2.6977867316186726;0.0;166.66666666666666;-166.66666666666666
0.3720000000000003;9817499999.0;9817520142.0;-20143.0;0.0;2.734422276481986;-3.943002276522898;0.0;0.0;0.0
0.3760000000000003;9817499999.0;9817514648.0;-14649.0;0.0;0.7790706215649843;-1.6580106216030268;0.0;0.0;0.0
0.3800000000000003;9817499999.0;9817514648.0;-14649.0;0.0;0.7489725175201893;-1.627912517558232;0.0;-250.0;250.0
0.3840000000000003;9817499999.0;9817514648.0;-14649.0;0.0;-0.42659445949643854;-0.4523455405416041;0.0;0.0;0.0
0.3880000000000003;9817499999.0;9817514648.0;-14649.0;0.0;-0.1464105873927474;-0.7325294126452953;0.0;0.0;0.0
0.3920000000000003;9817499999.0;9817514648.0;-14649.0;0.0;-0.8443823054134846;-0.034557694624558044;0.0;0.0;0.0
0.3960000000000003;9817499999.0;9817509155.0;-9156.0;0.0;-1.2996476514413953;0.7502876514653334;0.0;-83.33333333333333;83.33333333333333
0.4000000000000003;9817499999.0;9817514648.0;-14649.0;0.0;1.1367762460261583;-2.015716246064201;0.0;0.0;0.0
0.4040000000000003;9817499999.0;9817503662.0;-3663.0;0.0;-3.123160114422441;2.9033801143721045;0.0;0.0;0.0
0.4080000000000003;9817499999.0;9817514648.0;-14649.0;0.0;0.8668654934689403;-1.7458054935069829;0.0;83.33333333333333;-83.33333333333333
0.4120000000000003;9817499999.0;9817514648.0;-14649.0;0.0;0.6383442784100771;-1.5172842784481197;0.0;0.0;0.0
0.4160000000000003;9817499999.0;9817509155.0;-9156.0;0.0;1.5452272477596998;-2.0945872477357614;0.0;-83.33333333333333;83.33333333333333
0.4200000000000003;9817499999.0;9817509155.0;-9156.0;0.0;-0.3733610412403941;-0.1759989587356678;0.0;0.0;0.0
0.4240000000000003;9817553717.0;9817520142.0;-20143.0;13.429361304270977;3.10477655236423;-4.313356552405142;3357.340326067744;0.0;3357.340326067744
0.4280000000000003;9817558097.0;9817514648.0;6649.0;1.0949747858506322;0.190325844489038;5.5331460788082465;-3083.596629605086;83.33333333333333;-3166.9299629384195
0.43200000000000033;9817567784.0;9817531128.0;24011.0;2.421855166599531;3.0885973953679207;6.812344715278395;331.7200951872247;166.66666666666666;165.05342852055801
0.43600000000000033;9817589780.0;9817531128.0;30784.0;5.498988303561856;4.569673565581441;-1.029299645279468;769.2832842405813;0.0;769.2832842405813
0.44000000000000034;9817628809.0;9817536621.0;39827.0;9.757082259144097;2.482694984979928;3.541040700520274;1064.5234888955601;166.66666666666666;897.8568222288935
0.44400000000000034;9817683594.0;9817542114.0;63011.0;13.696481394466186;2.378906221203506;8.570979726087476;984.8497838305224;-83.33333333333333;1068.1831171638557
0.44800000000000034;9817749990.0;9817547607.0;102695.0;16.59898930824966;-0.42657200385630134;17.882314697638474;725.6269784458684;250.0;475.6269784458684
0.45200000000000035;9817823318.0;9817580566.0;129032.0;18.331793106042213;9.062190774813294;13.503927238993791;433.20094944813815;0.0;433.20094944813815
0.45600000000000035;9817899030.0;9817630005.0;148669.0;18.92815562420664;11.381224739335478;14.807927317368135;149.09062954110652;833.3333333333334;-684.2427037922268
0.46000000000000035;9817973312.0;9817745361.0;107546.0;18.570377593295056;27.387018151126803;-2.3761697721192583;-89.44450772789558;1416.6666666666667;-1506.1111743945623
0.46400000000000036;9818044128.0;9817805786.0;122252.0;17.703942757317925;18.16894835460186;7.948979559005412;-216.60870899428275;1500.0;-1716.6087089942828
0.46800000000000036;9818108347.0;9817904663.0;96291.0;16.05482948120492;23.612943833619358;0.3934622408748183;-412.27831902825153;750.0;-1162.2783190282514
0.47200000000000036;9818159306.0;9817976074.0;93101.0;12.739669220945373;17.485714459858833;5.155517417452273;-828.7900650648864;83.33333333333333;-912.1233983982198
0.47600000000000037;9818192697.0;9818058472.0;69703.0;8.347800911941718;18.028336617693306;0.9039263927363343;-1097.967077250914;-83.33333333333333;-1014.6337439175804
0.48000000000000037;9818207914.0;9818135376.0;36870.0;3.804301715619752;18.86117991360277;-5.631193087143059;-1135.8747990804916;-83.33333333333333;-1052.541465747158
0.4840000000000004;9818203848.0;9818135376.0;63159.0;-1.016485951825667;3.008230620123446;7.353417455961465;-1205.1969168613548;-1083.3333333333333;-121.86358352802151
0.4880000000000004;9818181309.0;9818135376.0;70836.0;-5.634845637308643;-1.0159219655245544;7.1856387613448085;-1154.589921370744;-1500.0;345.4100786292561
0.4920000000000004;9818143161.0;9818135376.0;59559.0;-9.536900208998782;-3.7138222500011326;4.468015647468083;-975.5136429225348;-1500.0;524.4863570774652
0.4960000000000004;9818090692.0;9818135376.0;30939.0;-13.117245104923896;-1.1584252622127533;-4.1401233418673735;-895.0862239812784;-750.0;-145.08622398127847
0.5000000000000003;9818025392.0;9818135376.0;-12796.0;-16.324922839621486;0.3399473874792457;-12.041294803772633;-801.9194336743975;-83.33333333333333;-718.5861003410643
0.5040000000000003;9817951921.0;9818096924.0;-31816.0;-18.36785934696604;-9.351539514102042;-6.925481109312999;-510.7341268361383;-416.6666666666667;-94.06746016947159
0.5080000000000003;9817875607.0;9818074951.0;-78307.0;-19.07847455768729;-6.3192474811822175;-15.495292775900825;-177.6538026803127;-500.0;322.3461973196873
0.5120000000000003;9817797169.0;9818036499.0;-114406.0;-19.609544097171987;-8.674965947076679;-16.82703089653344;-132.76738487117433;-583.3333333333334;450.56594846215904
0.5160000000000003;9817716317.0;9818020020.0;-175066.0;-20.21298049264134;-4.69578532435745;-25.093046246716135;-150.85909886733793;-166.66666666666666;15.807567799328709
0.5200000000000004;9817639440.0;9817965088.0;-199517.0;-19.219267780300815;-13.505565021753311;-18.31114044200362;248.42817808513118;-83.33333333333333;331.7615114184645
0.5240000000000004;9817576408.0;9817921143.0;-234834.0;-15.757989639959161;-12.499164965301752;-21.406328203561017;865.3195350854132;-416.6666666666667;1281.98620175208
0.5280000000000004;9817499999.0;9817877197.0;-262299.0;-19.10208727531143;-11.22515325410664;-22.365534361445807;-836.0244088380671;-416.6666666666667;-419.3577421714004
0.5320000000000004;9817499999.0;9817827759.0;-281278.0;0.0;-11.314541506908835;-22.666291520586217;4775.521818827858;-333.3333333333333;5108.855152161191
0.5360000000000004;9817499999.0;9817772827.0;-272381.0;0.0;-10.421707046799362;-17.42996677182971;0.0;-83.33333333333333;83.33333333333333
0.5400000000000004;9817499999.0;9817739868.0;-239869.0;0.0;-2.1779647808372973;-12.326101511776873;0.0;-83.33333333333333;83.33333333333333
0.5440000000000004;9817499999.0;9817739868.0;-239869.0;0.0;0.8833729597404599;-15.27551295972585;0.0;916.6666666666666;-916.6666666666666
0.5480000000000004;9817499999.0;9817728882.0;-228883.0;0.0;-1.4820102674216031;-12.250969732576081;0.0;1000.0;-1000.0
0.5520000000000004;9817499999.0;9817728882.0;-228883.0;0.0;-0.48610332069545986;-13.246876679302225;0.0;1000.0;-1000.0
0.5560000000000004;9817499999.0;9817717896.0;-217897.0;0.0;-1.4476192824989558;-11.626200717511022;0.0;-83.33333333333333;83.33333333333333
0.5600000000000004;9817499999.0;9817712402.0;-212403.0;0.0;-3.074040262170136;-9.670139737836974;0.0;83.33333333333333;-83.33333333333333
