Zeit[sec];Sollposition[°];Istposition[°];Positionsschleppfehler[°];Sollgeschwindigkeit[°/s];Istgeschwindigkeit[°/s];Geschwindigkeitsdifferenz[°/s];Sollbeschleunigung[°/s*s];Istbeschleunigung[°/s*s];Beschleunigungsdifferenz[°/s*s]
0.0;9817499999.0;9817503662.0;-3663.0;0.0;1.586962431818247;-1.806742431868583;0.0;0.0;0.0
0.004;9817499999.0;9817503662.0;-3663.0;0.0;3.2362239090651275;-3.4560039091154637;0.0;0.0;0.0
0.008;9817499999.0;9817492676.0;7323.0;0.0;-2.9232900744825603;3.3626700744880584;0.0;0.0;0.0
0.012;9817499999.0;9817498169.0;1830.0;0.0;-0.9196064816862345;1.0294064816978792;0.0;0.0;0.0
0.016;9817499999.0;9817498169.0;1830.0;0.0;0.5393797272369266;-0.4295797272252819;0.0;0.0;0.0
0.02;9817499999.0;9817503662.0;-3663.0;0.0;3.3750413924455644;-3.5948213924959007;0.0;0.0;0.0
0.024;9817499999.0;9817503662.0;-3663.0;0.0;2.4495760701969265;-2.6693560702472627;0.0;0.0;0.0
0.028;9817499999.0;9817503662.0;-3663.0;0.0;2.5779873427152635;-2.7977673427656;0.0;0.0;0.0
0.032;9817499999.0;9817492676.0;7323.0;0.0;-2.305370237350464;2.7447502373559622;0.0;0.0;0.0
0.036000000000000004;9817499999.0;9817498169.0;1830.0;0.0;-0.6698267255201936;0.7796267255318383;0.0;0.0;0.0
0.04000000000000001;9817499999.0;9817503662.0;-3663.0;0.0;3.7034927800744772;-3.9232727801248135;0.0;0.0;0.0
0.04400000000000001;9817499999.0;9817492676.0;7323.0;0.0;-3.563585212297738;4.002965212303236;0.0;0.0;0.0
0.048000000000000015;9817499999.0;9817503662.0;-3663.0;0.0;1.6784254277199506;-1.8982054277702867;0.0;0.0;0.0
0.05200000000000002;9817424975.0;9817503662.0;-3663.0;-18.756063105880525;1.442129220880568;-1.661909220930904;-4689.015776470132;0.0;-4689.015776470132
0.05600000000000002;9817357779.0;9817498169.0;-27917.0;-16.7989596135832;0.3200499795675278;-9.431555937587909;489.2758730743312;0.0;489.2758730743312
0.060000000000000026;9817274970.0;9817470703.0;-71931.0;-20.702255155104577;-6.983689302541316;-15.202374041186044;-975.8238853803442;-166.66666666666666;-809.1572187136776
0.06400000000000003;9817186888.0;9817432251.0;-106912.0;-22.020685152789987;-10.786850196823478;-13.985892513260426;-329.6074994213525;-666.6666666666666;337.05916724531414
0.06800000000000003;9817097208.0;9817393799.0;-153268.0;-22.419938189155857;-10.743457237429917;-19.65474393901158;-99.81325909146754;-750.0;650.1867409085324
0.07200000000000004;9817005279.0;9817344360.0;-192513.0;-22.982269199693473;-13.314532810896635;-20.407504756783098;-140.5827526344039;-750.0;609.4172473655962
0.07600000000000004;9816913600.0;9817267456.0;-206172.0;-22.919596978077074;-17.517777684405445;-17.493096590714707;15.668055404099768;-666.6666666666666;682.3347220707664
0.08000000000000004;9816829567.0;9817201538.0;-232071.0;-21.00840044426821;-22.04235958890617;-14.836026145962652;477.7991334522156;-416.6666666666667;894.4658001188823
0.08400000000000005;9816759102.0;9817146606.0;-265788.0;-17.616156150503212;-15.578516372069716;-22.53096826282924;848.06107344125;-416.6666666666667;1264.7277401079166
0.08800000000000005;9816705757.0;9817097168.0;-295048.0;-13.336366386959224;-16.280898526586594;-21.096608476268027;1069.947440885997;333.3333333333333;736.6141075526637
0.09200000000000005;9816674476.0;9817031250.0;-292887.0;-7.820143543155863;-14.649237038120628;-18.863145774319886;1379.0557109508402;-166.66666666666666;1545.7223776175067
0.09600000000000006;9816667032.0;9816987305.0;-293639.0;-1.8611237199833826;-7.205871728286147;-21.586815385326496;1489.7549557931202;83.33333333333333;1406.421622459787
0.10000000000000006;9816682457.0;9816943359.0;-271652.0;3.8563044562816224;-8.464542670451104;-13.324384240710119;1429.3570440662513;250.0;1179.3570440662513
0.10400000000000006;9816722429.0;9816926880.0;-253689.0;9.993081899043423;-2.3270353246852755;-12.52347358997611;1534.1943606904501;666.6666666666666;867.5276940237835
0.10800000000000007;9816786834.0;9816926880.0;-228665.0;16.101148289033198;-0.8725880805775523;-6.591371649961606;1527.0165974974436;1250.0;277.0165974974437
0.11200000000000007;9816870295.0;9816937866.0;-190136.0;20.86527964863833;0.17377347372472288;0.7969436301226733;1191.0328399012835;916.6666666666666;274.3661732346169
0.11600000000000008;9816965582.0;9816970825.0;-151277.0;23.821798131704156;8.991299850560726;-0.11365736850493668;739.1296207664561;916.6666666666666;-177.53704590021047
0.12000000000000008;9817066363.0;9816987305.0;-79719.0;25.195170533826527;6.8544271701350805;10.372011029148728;343.34310053059266;500.0;-156.6568994694073
0.12400000000000008;9817167269.0;9817042236.0;-37254.0;25.226588576584934;12.374451030783355;9.739304448866093;7.854510689601746;666.6666666666666;-658.8121559770649
0.12800000000000009;9817263585.0;9817102661.0;3119.0;24.07886673551727;17.06158612779528;8.325134065142269;-286.93046026691604;750.0;-1036.930460266916
0.1320000000000001;9817352854.0;9817130127.0;74738.0;22.31733502113096;6.469101577997208;22.786529131552587;-440.3829285965779;583.3333333333334;-1023.7162619299113
0.1360000000000001;9817431844.0;9817201538.0;96876.0;19.74750303076776;17.737795330941676;11.46193653641512;-642.4579975907996;0.0;-642.4579975907996
0.1400000000000001;9817499999.0;9817223511.0;160138.0;17.03888131577483;8.159181627377867;22.757856638133994;-677.1554287482325;-83.33333333333333;-593.8220954148991
0.1440000000000001;9817499999.0;9817289429.0;168975.0;0.0;13.822474227912725;15.004660224468818;-4259.7203289437075;-83.33333333333333;-4176.3869956103745
0.1480000000000001;9817552364.0;9817333374.0;166225.0;13.09100737709475;8.905799974672496;11.366801962292564;3272.7518442736873;333.3333333333333;2939.4185109403543
0.1520000000000001;9817558717.0;9817338867.0;181894.0;1.5883673305517676;1.7855953057184817;14.41826176750063;-2875.6600116357454;-500.0;-2375.6600116357454
0.1560000000000001;9817557940.0;9817360840.0;193736.0;-0.19431298536378763;6.702113250106573;13.37573195585464;-445.6700789788888;-833.3333333333334;387.6632543544446
0.16000000000000011;9817554777.0;9817382813.0;175558.0;-0.7907246393362909;2.6895974982902406;8.792843222785395;-149.1029134931258;-583.3333333333334;434.23041984020756
0.16400000000000012;9817551875.0;9817388306.0;168384.0;-0.7254676251522209;3.891123605750501;5.7915808994870375;16.31425354601751;-416.6666666666667;432.98092021268417
0.16800000000000012;9817499999.0;9817388306.0;165338.0;-12.968869457794217;3.5861197201311588;5.572803626606019;-3060.850458160499;-166.66666666666666;-2894.1837914938324
0.17200000000000013;9817499999.0;9817388306.0;143017.0;0.0;0.5764204215779901;2.4244320645307407;3242.2173644485542;-500.0;3742.2173644485542
0.17600000000000013;9817499999.0;9817377319.0;122983.0;0.0;-2.768149854525924;2.3919531808303267;0.0;-83.33333333333333;83.33333333333333
0.18000000000000013;9817499999.0;9817388306.0;111693.0;0.0;3.6514550932124257;2.9741354373603235;0.0;0.0;0.0
0.18400000000000014;9817499999.0;9817388306.0;111693.0;0.0;4.148850832149386;2.5527291679026263;0.0;-83.33333333333333;83.33333333333333
0.18800000000000014;9817499999.0;9817382813.0;117186.0;0.0;-2.6107646195292475;9.641924619438857;0.0;166.66666666666666;-166.66666666666666
0.19200000000000014;9817499999.0;9817388306.0;111693.0;0.0;-2.3387769786044954;9.040356978656508;0.0;0.0;0.0
0.19600000000000015;9817499999.0;9817393799.0;106200.0;0.0;0.7430000930503011;5.62899990693973;0.0;0.0;0.0
0.20000000000000015;9817499999.0;9817404785.0;95214.0;0.0;3.434668298475444;2.278171701526881;0.0;0.0;0.0
0.20400000000000015;9817499999.0;9817404785.0;95214.0;0.0;3.12592578266561;2.586914217336715;0.0;0.0;0.0
0.20800000000000016;9817499999.0;9817404785.0;95214.0;0.0;-0.018564478881657125;5.731404478883983;0.0;83.33333333333333;-83.33333333333333
0.21200000000000016;9817499999.0;9817410278.0;89721.0;0.0;3.0476906143948437;2.3355693856136286;0.0;-83.33333333333333;83.33333333333333
0.21600000000000016;9817499999.0;9817404785.0;95214.0;0.0;-0.7283178716823459;6.441157871684671;0.0;0.0;0.0
0.22000000000000017;9817499999.0;9817404785.0;95214.0;0.0;-1.3830310041829943;7.0958710041853195;0.0;-83.33333333333333;83.33333333333333
0.22400000000000017;9817499999.0;9817404785.0;95214.0;0.0;-2.6619792770296336;8.374819277031959;0.0;0.0;0.0
0.22800000000000017;9817499999.0;9817415771.0;84228.0;0.0;2.494374124079943;2.5593058759346756;0.0;0.0;0.0
0.23200000000000018;9817499999.0;9817415771.0;84228.0;0.0;0.27799840380996466;4.775681596204654;0.0;83.33333333333333;-83.33333333333333
0.23600000000000018;9817499999.0;9817415771.0;84228.0;0.0;-0.7980734683945775;5.851753468409196;0.0;0.0;0.0
0.24000000000000019;9817499999.0;9817421265.0;78734.0;0.0;-0.28907767255604266;5.013117672567792;0.0;83.33333333333333;-83.33333333333333
0.2440000000000002;9817499999.0;9817432251.0;67748.0;0.0;-0.0036699343025684357;4.068549934394738;0.0;83.33333333333333;-83.33333333333333
0.2480000000000002;9817499999.0;9817443237.0;56762.0;0.0;2.1428566182926296;1.2628633816755794;0.0;83.33333333333333;-83.33333333333333
0.25200000000000017;9817499999.0;9817448730.0;51269.0;0.0;3.1594776557460427;-0.08333765577168739;0.0;0.0;0.0
0.25600000000000017;9817499999.0;9817454224.0;45775.0;0.0;4.381094132304192;-1.6345941322645774;0.0;-166.66666666666666;166.66666666666666
0.2600000000000002;9817499999.0;9817465210.0;34789.0;0.0;4.1703354911878705;-2.082995491135963;0.0;83.33333333333333;-83.33333333333333
0.2640000000000002;9817499999.0;9817459717.0;40282.0;0.0;0.1750875804722309;2.241832419437275;0.0;-83.33333333333333;83.33333333333333
0.2680000000000002;9817499999.0;9817465210.0;34789.0;0.0;2.164721911355853;-0.07738191130394556;0.0;0.0;0.0
0.2720000000000002;9817499999.0;9817465210.0;34789.0;0.0;1.0574496917054057;1.0298903083465019;0.0;-166.66666666666666;166.66666666666666
0.2760000000000002;9817499999.0;9817459717.0;40282.0;0.0;-1.4098855589851738;3.8268055588946797;0.0;0.0;0.0
0.2800000000000002;9817499999.0;9817465210.0;34789.0;0.0;0.4937953530326486;1.593544647019259;0.0;0.0;0.0
0.2840000000000002;9817499999.0;9817465210.0;34789.0;0.0;-0.9840715994015337;3.071411599453441;0.0;83.33333333333333;-83.33333333333333
0.2880000000000002;9817499999.0;9817465210.0;34789.0;0.0;0.2948074360191822;1.7925325640327254;0.0;0.0;0.0
0.2920000000000002;9817499999.0;9817459717.0;40282.0;0.0;-5.213062238886953;7.629982238796458;0.0;0.0;0.0
0.2960000000000002;9817499999.0;9817476196.0;23803.0;0.0;1.570677195340395;-0.1424971952761942;0.0;-83.33333333333333;83.33333333333333
0.3000000000000002;9817499999.0;9817487183.0;12816.0;0.0;7.425610817149281;-6.65665081714993;0.0;0.0;0.0
0.3040000000000002;9817499999.0;9817470703.0;29296.0;0.0;-0.8705909412205219;2.628350941142321;0.0;0.0;0.0
0.3080000000000002;9817499999.0;9817476196.0;23803.0;0.0;-0.08601207861304283;1.5141920786772438;0.0;0.0;0.0
0.3120000000000002;9817499999.0;9817487183.0;12816.0;0.0;2.696377086110413;-1.9274170861110616;0.0;0.0;0.0
0.3160000000000002;9817499999.0;9817476196.0;23803.0;0.0;-1.5780403696894647;3.006220369753666;0.0;0.0;0.0
0.32000000000000023;9817499999.0;9817487183.0;12816.0;0.0;4.268822602845728;-3.4998626028463766;0.0;0.0;0.0
0.32400000000000023;9817499999.0;9817487183.0;12816.0;0.0;2.329232111029327;-1.5602721110299753;0.0;0.0;0.0
0.32800000000000024;9817499999.0;9817492676.0;7323.0;0.0;4.785505985423923;-4.346125985418425;0.0;0.0;0.0
0.33200000000000024;9817499999.0;9817481689.0;18310.0;0.0;0.11693368035554887;0.9816663196466712;0.0;0.0;0.0
0.33600000000000024;9817499999.0;9817476196.0;23803.0;0.0;-0.9528474852740765;2.3810274853382776;0.0;-83.33333333333333;83.33333333333333
0.34000000000000025;9817499999.0;9817487183.0;12816.0;0.0;3.8424966000244023;-3.073536600025051;0.0;0.0;0.0
0.34400000000000025;9817499999.0;9817487183.0;12816.0;0.0;2.4036997952088712;-1.6347397952095197;0.0;0.0;0.0
0.34800000000000025;9817499999.0;9817487183.0;12816.0;0.0;0.13871450720727443;0.630245492792077;0.0;166.66666666666666;-166.66666666666666
0.35200000000000026;9817499999.0;9817487183.0;12816.0;0.0;-1.94352962346375;2.7124896234631013;0.0;0.0;0.0
0.35600000000000026;9817499999.0;9817503662.0;-3663.0;0.0;4.5719486300870775;-4.791728630137413;0.0;0.0;0.0
0.36000000000000026;9817499999.0;9817492676.0;7323.0;0.0;-1.2370070725902915;1.6763870725957895;0.0;0.0;0.0
0.36400000000000027;9817499999.0;9817503662.0;-3663.0;0.0;0.7512855884805322;-0.9710655885308683;0.0;0.0;0.0
0.36800000000000027;9817499999.0;9817509155.0;-9156.0;0.0;0.5828895630612969;-1.1322495630373588;0.0;83.33333333333333;-83.33333333333333
0.3720000000000003;9817499999.0;9817509155.0;-9156.0;0.0;-1.4745870543643833;0.9252270543883214;0.0;0.0;0.0
0.3760000000000003;9817499999.0;9817509155.0;-9156.0;0.0;-0.5031134149879217;-0.04624658498814016;0.0;0.0;0.0
0.3800000000000003;9817499999.0;9817503662.0;-3663.0;0.0;-0.8475180879160762;0.6277380878657401;0.0;-83.33333333333333;83.33333333333333
0.3840000000000003;9817499999.0;9817503662.0;-3663.0;0.0;0.00966204196214676;-0.22944204201248286;0.0;-83.33333333333333;83.33333333333333
0.3880000000000003;9817499999.0;9817503662.0;-3663.0;0.0;0.0010768361613154411;-0.22085683621165153;0.0;0.0;0.0
0.3920000000000003;9817499999.0;9817503662.0;-3663.0;0.0;-0.17382241229712964;-0.045957587753206464;0.0;0.0;0.0
0.3960000000000003;9817499999.0;9817509155.0;-9156.0;0.0;2.899887383684516;-3.4492473836605777;0.0;0.0;0.0
0.4000000000000003;9817499999.0;9817503662.0;-3663.0;0.0;-0.48205555861443283;0.26227555856409673;0.0;0.0;0.0
0.4040000000000003;9817499999.0;9817498169.0;1830.0;0.0;-4.843486271493137;4.953286271504782;0.0;0.0;0.0
0.4080000000000003;9817499999.0;9817503662.0;-3663.0;0.0;-0.17524197490513324;-0.04453802514520286;0.0;-83.33333333333333;83.33333333333333
0.4120000000000003;9817499999.0;9817503662.0;-3663.0;0.0;0.21147528348863126;-0.43125528353896736;0.0;0.0;0.0
0.4160000000000003;9817552793.0;9817514648.0;-14649.0;13.198485050560942;3.131693005345762;-4.010633005383805;3299.6212626402353;83.33333333333333;3216.2879293069022
0.4200000000000003;9817557712.0;9817509155.0;11776.0;1.229527791495466;-0.7224450772851706;6.661998173528419;-2992.239314766369;83.33333333333333;-3075.5726480997023
0.4240000000000003;9817569012.0;9817520142.0;34292.0;2.8250805038793367;1.814201651789248;8.618963987165728;398.88817809596765;83.33333333333333;315.55484476263433
0.4280000000000003;9817595595.0;9817525635.0;36528.0;6.645840094000888;0.7732263680621981;3.350723752314716;955.1898975303877;0.0;955.1898975303877
0.43200000000000033;9817643548.0;9817531128.0;48358.0;11.988251306309794;-0.34797949126362804;7.580062531610675;1335.6028030772266;166.66666666666666;1168.9361364105598
0.43600000000000033;9817711496.0;9817542114.0;72338.0;16.986942925773935;1.0248583649247884;12.057057036410153;1249.6729048660354;0.0;1249.6729048660354
0.44000000000000034;9817794521.0;9817558594.0;111613.0;20.756207398182063;5.133674679376185;15.50195655874138;942.3161181020321;83.33333333333333;858.9827847686987
0.44400000000000034;9817886929.0;9817608032.0;135984.0;23.102105146296847;7.729734893426299;18.881413292075422;586.4744370286959;666.6666666666666;-80.1922296379708
0.44800000000000034;9817983043.0;9817706909.0;123764.0;24.028529899044067;23.397777681507172;5.692295985143332;231.606188186805;1250.0;-1018.393811813195
0.45200000000000035;9818078058.0;9817800293.0;124202.0;23.753745011115136;21.013614658676087;9.89417793215722;-68.69622198223269;1916.6666666666667;-1985.3628886488993
0.45600000000000035;9818169340.0;9817893677.0;126475.0;22.820454334512416;23.817010795027016;7.68564291949431;-233.32266915068;1000.0;-1233.32266915068
0.46000000000000035;9818252698.0;9818025513.0;88180.0;20.839349532836682;29.222134747236968;-0.5460148390118;-495.2762004189335;1166.6666666666667;-1661.9428670856003
0.46400000000000036;9818319332.0;9818080444.0;121411.0;16.658585135378;14.504718534618616;14.820387200767248;-1045.1910993646702;-333.3333333333333;-711.857766031337
0.46800000000000036;9818363482.0;9818190308.0;88321.0;11.037560936252627;23.712272943995895;0.7803368655615728;-1405.2560497813436;0.0;-1405.2560497813436
0.47200000000000036;9818383504.0;9818245239.0;91207.0;5.005498568484412;13.12674284707755;6.800110688226207;-1508.0155919420538;-916.6666666666666;-591.348925275387
0.47600000000000037;9818376134.0;9818272705.0;98457.0;-1.842509550622312;12.508629765942693;2.0776683810760854;-1712.002029776681;-1166.6666666666667;-545.3353631100142
0.48000000000000037;9818341102.0;9818300171.0;80293.0;-8.758099234056491;5.703415816165507;1.439878648620728;-1728.8974208585448;-1000.0;-728.8974208585448
0.4840000000000004;9818283144.0;9818289185.0;73102.0;-14.489548078798359;1.6026662459522487;-1.760854002335364;-1432.862211185467;-1666.6666666666667;233.80445548119977
0.4880000000000004;9818207117.0;9818272705.0;45622.0;-19.00659816759733;-2.678170826382935;-5.574517287469481;-1129.2625221997423;-666.6666666666666;-462.5958555330757
0.4920000000000004;9818117684.0;9818256226.0;-2887.0;-22.35836330875057;-1.8504317637979986;-14.56969338829824;-837.9412852883102;-1166.6666666666667;328.7253813783566
0.4960000000000004;9818021112.0;9818206787.0;-34684.0;-24.142930370887616;-10.350664698429405;-12.039428885931727;-446.14176553426165;-416.6666666666667;-29.475098867594973
0.5000000000000003;9817923137.0;9818162842.0;-82924.0;-24.493710887165086;-12.139847905926407;-15.881869110203452;-87.69512906936771;-833.3333333333334;745.6382042639657
0.5040000000000003;9817824569.0;9818129883.0;-147052.0;-24.64198242954716;-6.753426749587059;-26.34124616742628;-37.06788559551821;-500.0;462.9321144044818
0.5080000000000003;9817726334.0;9818080444.0;-195814.0;-24.558874214996134;-7.617308089032769;-28.681974793412152;20.777053637756282;-416.6666666666667;437.443720304423
0.5120000000000003;9817637381.0;9818025513.0;-239316.0;-22.238053984894915;-14.821798211231828;-24.145324331216152;580.2050575253048;166.66666666666666;413.5383908586382
0.5160000000000003;9817568806.0;9817959595.0;-267955.0;-17.14383289786322;-13.133164005100728;-26.583328213706007;1273.5552717579237;-666.6666666666666;1940.2219384245902
0.5200000000000004;9817499999.0;9817893677.0;-282965.0;-17.20166050894342;-16.437755730062722;-20.772017747121904;-14.456902770049851;-250.0;235.54309722995015
0.5240000000000004;9817499999.0;9817838745.0;-296819.0;0.0;-10.494388242021204;-24.511361351842318;4300.415127235855;-583.3333333333334;4883.748460569188
0.5280000000000004;9817499999.0;9817789307.0;-288905.0;0.0;-10.757861764974892;-16.957570294384823;0.0;500.0;-500.0
0.5320000000000004;9817499999.0;9817767334.0;-267335.0;0.0;-0.4441882950216532;-15.69670268448661;0.0;250.0;-250.0
0.5360000000000004;9817499999.0;9817745361.0;-245362.0;0.0;-6.744169259697199;-7.977550740350174;0.0;1250.0;-1250.0
0.5400000000000004;9817499999.0;9817750854.0;-250855.0;0.0;-0.2536821434944868;-14.797617856478611;0.0;833.3333333333334;-833.3333333333334
0.5440000000000004;9817499999.0;9817728882.0;-228883.0;0.0;-5.3151943839192395;-8.417785616078445;0.0;750.0;-750.0
0.5480000000000004;9817499999.0;9817728882.0;-228883.0;0.0;-4.652882386080921;-9.080097613916763;0.0;83.33333333333333;-83.33333333333333
0.5520000000000004;9817499999.0;9817728882.0;-228883.0;0.0;-1.7551395182237028;-11.977840481773981;0.0;83.33333333333333;-83.33333333333333
0.5560000000000004;9817499999.0;9817723389.0;-223390.0;0.0;-2.364318339407444;-11.03908166059639;0.0;166.66666666666666;-166.66666666666666
0.5600000000000004;9817499999.0;9817717896.0;-217897.0;-8.515934755133369e-10;-1.542509105734527;-11.53131089427545;-2.1289836887833425e-07;-83.33333333333333;83.33333312043496
0.5640000000000004;9817499999.0;9817706909.0;-206910.0;0.0;-4.578732288040221;-7.835867712242552;2.1289836887833425e-07;0.0;2.1289836887833425e-07
0.5680000000000004;9817577262.0;9817695923.0;-195924.0;19.315625488379865;-6.120478914618492;-5.63496108584789;4828.906372094966;-83.33333333333333;4912.239705428299
0.5720000000000004;9817646585.0;9817695923.0;-165290.0;17.330761521185924;-2.9474572790041567;0.6884009784621754;-496.2159917984854;-83.33333333333333;-412.8826584651521
