Zeit[sec];Sollposition[°];Istposition[°];Positionsschleppfehler[°];Sollgeschwindigkeit[°/s];Istgeschwindigkeit[°/s];Geschwindigkeitsdifferenz[°/s];Sollbeschleunigung[°/s*s];Istbeschleunigung[°/s*s];Beschleunigungsdifferenz[°/s*s]
0.0;-9979199999.0;-9979194946.0;-5053.0;0.0;2.007404061898589;-2.3105840619512037;0.0;0.0;0.0
0.004;-9979199999.0;-9979200439.0;440.0;0.0;-0.3284561370611191;0.3548561370858739;0.0;-83.33333333333333;83.33333333333333
0.008;-9979199999.0;-9979194946.0;-5053.0;0.0;0.5221596989631653;-0.8253396990157801;0.0;83.33333333333333;-83.33333333333333
0.012;-9979199999.0;-9979200439.0;440.0;0.0;-1.8288563780784608;1.8552563781032156;0.0;0.0;0.0
0.016;-9979199999.0;-9979194946.0;-5053.0;0.0;3.38140941952914;-3.684589419581755;0.0;-83.33333333333333;83.33333333333333
0.02;-9979199999.0;-9979205933.0;5934.0;0.0;-1.080710617236793;1.436750617253356;0.0;0.0;0.0
0.024;-9979199999.0;-9979205933.0;5934.0;0.0;-0.7221052175015211;1.0781452175180841;0.0;0.0;0.0
0.028;-9979199999.0;-9979205933.0;5934.0;0.0;-2.5544407880529763;2.910480788069539;0.0;83.33333333333333;-83.33333333333333
0.032;-9979199999.0;-9979205933.0;5934.0;0.0;-5.605504859216511;5.961544859233074;0.0;83.33333333333333;-83.33333333333333
0.036000000000000004;-9979199999.0;-9979211426.0;11427.0;0.0;-4.378371358372271;5.063991358327704;0.0;-166.66666666666666;166.66666666666666
0.04000000000000001;-9979199999.0;-9979200439.0;440.0;0.0;1.286116198323667;-1.2597161982989122;0.0;0.0;0.0
0.04400000000000001;-9979199999.0;-9979200439.0;440.0;0.0;0.135933015614748;-0.10953301558999322;0.0;0.0;0.0
0.048000000000000015;-9979200546.0;-9979194946.0;-5053.0;-0.13652102155165535;2.3453854793980717;-2.6485654794506868;-34.13025538791384;166.66666666666666;-200.7969220545805
0.05200000000000002;-9979205988.0;-9979194946.0;-5270.0;-1.3605238331580543;1.1357264565750957;-1.5060549085240433;-306.0007029015997;0.0;-306.0007029015997
0.05600000000000002;-9979369318.0;-9979200439.0;-2261.0;-40.83267976753458;2.263458650507033;-3.0201377339157878;-9868.038983594131;-250.0;-9618.038983594131
0.060000000000000026;-9979668474.0;-9979211426.0;-59288.0;-74.78879023442953;-5.524691621817649;-15.036033395385068;-8489.027616723737;83.33333333333333;-8572.360950057071
0.06400000000000003;-9980225372.0;-9979255371.0;-231601.0;-139.22455641123426;-13.781852456606925;-54.17867238315485;-16108.941544201183;-500.0;-15608.941544201183
0.06800000000000003;-9981077216.0;-9979497070.0;-390453.0;-212.96110103310036;-69.6140302753821;-53.95075285462893;-18434.136155466527;-2416.6666666666665;-16017.46948879986
0.07200000000000004;-9982286100.0;-9980227661.0;-332191.0;-302.2209601614066;-196.29943284911664;8.285581946332883;-22314.964782076557;-9750.0;-12564.964782076559
0.07600000000000004;-9984002801.0;-9981392212.0;-159316.0;-429.1752999024431;-294.28023521425575;36.80208478822976;-31738.584935259125;-19916.666666666668;-11821.918268592459
0.08000000000000004;-9986395844.0;-9982743530.0;-216132.0;-598.2606063553966;-341.838057384789;-23.16322783528966;-42271.32661323837;-23833.333333333332;-18437.99327990504
0.08400000000000005;-9989612985.0;-9984578247.0;-363299.0;-804.2851352011336;-465.8573216234744;-51.41172724526484;-51506.13221143425;-23166.666666666668;-28339.46554476758
0.08800000000000005;-9993778090.0;-9987099609.0;-557759.0;-1041.2762562254807;-641.340005359605;-71.08091333237894;-59247.78025608677;-24750.0;-34497.78025608677
0.09200000000000005;-9999006368.0;-9990433960.0;-811574.0;-1307.0694903350895;-848.6148143556118;-97.12086237175731;-66448.30852740222;-34500.0;-31948.30852740222
0.09600000000000006;-10005402292.0;-9994779053.0;-1047563.0;-1598.9808244503595;-1106.8860184435919;-101.23826223719425;-72977.83352881749;-46916.666666666664;-26061.16686215082
0.10000000000000006;-10013041035.0;-10000266724.0;-1244893.0;-1909.68579368541;-1383.4055396703557;-112.53843129579809;-77676.24230876265;-57833.333333333336;-19842.908975429316
0.10400000000000006;-10021975172.0;-10006875000.0;-1518458.0;-2233.5340540229176;-1667.498728790775;-144.06882322276465;-80962.06508437688;-65250.0;-15712.065084376889
0.10800000000000007;-10032230110.0;-10014752197.0;-1786325.0;-2563.7343033536354;-1992.0190683164;-151.42646353458258;-82550.06233267943;-71000.0;-11550.06233267943
0.11200000000000007;-10043785164.0;-10024035645.0;-1953101.0;-2888.763377099555;-2324.134879859485;-155.60692524373098;-81257.26843647988;-76833.33333333333;-4423.935103146548
0.11600000000000008;-10056586967.0;-10034538574.0;-2212847.0;-3200.450597885458;-2650.2777856815683;-173.1615197472097;-77921.80519647582;-79583.33333333333;1661.5281368575124
0.12000000000000008;-10070563552.0;-10046513672.0;-2279501.0;-3494.146247113555;-2992.649557725616;-154.5585250737313;-73423.91230702423;-84750.0;11326.087692975761
0.12400000000000008;-10085619229.0;-10059675293.0;-2378161.0;-3763.9190615634707;-3288.8430777973385;-168.9166237032705;-67443.2036124789;-82666.66666666667;15223.463054187774
0.12800000000000009;-10101635053.0;-10073973999.0;-2477000.0;-4003.955762396567;-3597.623709225677;-150.38237067239425;-60009.175208274086;-79333.33333333333;19324.158125059243
0.1320000000000001;-10118477038.0;-10089442749.0;-2438287.0;-4210.496075311699;-3873.665666185841;-130.14071659980482;-51635.07822878307;-75750.0;24114.921771216927
0.1360000000000001;-10136003664.0;-10105729980.0;-2488814.0;-4381.656251975464;-4101.920847615332;-131.8472966157433;-42790.04416594125;-67750.0;24959.955834058746
0.1400000000000001;-10154068312.0;-10123011475.0;-2315913.0;-4516.161795567469;-4331.915468937926;-84.18752489720282;-33626.385898001216;-65666.66666666667;32040.280768665456
0.1440000000000001;-10172536137.0;-10140792847.0;-2270472.0;-4616.95595794486;-4457.2952454193755;-112.91578128103174;-25198.540594347607;-54500.0;29301.459405652393
0.1480000000000001;-10191303184.0;-10159151001.0;-2133668.0;-4691.761594438932;-4584.287902105145;-99.0691655166138;-18701.40912351803;-47083.333333333336;28381.924209815304
0.1520000000000001;-10210283117.0;-10177959595.0;-1909173.0;-4744.982968977882;-4704.253781986967;-56.321231194542634;-13305.343634737483;-36250.0;22944.65636526252
0.1560000000000001;-10229396580.0;-10197026367.0;-1692101.0;-4778.365636392098;-4760.107593988441;-53.84318959484426;-8345.666853554121;-29666.666666666668;21320.999813112547
0.16000000000000011;-10248581269.0;-10216307373.0;-1442723.0;-4796.171922634073;-4818.22281231539;-26.247398696670643;-4451.571560493676;-22000.0;17548.428439506322
0.16400000000000012;-10267795711.0;-10235511475.0;-1379541.0;-4803.610247424544;-4812.617602981545;-55.38480611535488;-1859.581197617672;-13666.666666666666;11807.085469048994
0.16800000000000012;-10287015929.0;-10254962769.0;-1124316.0;-4805.0542561066395;-4868.834478306003;2.3587498248507472;-361.00217052398875;-7000.0;6638.997829476011
0.17200000000000013;-10306231249.0;-10274386597.0;-917045.0;-4803.829797711006;-4863.001441438057;3.839551068090259;306.1145989083798;-5666.666666666667;5972.781265575047
0.17600000000000013;-10325439407.0;-10293782959.0;-738926.0;-4802.039440596764;-4826.6095807154925;-22.28629578100663;447.58927856059927;-5250.0;5697.589278560599
0.18000000000000013;-10344642097.0;-10313228760.0;-505634.0;-4800.672261831581;-4853.071039681055;19.605876030514082;341.7946912957177;-1250.0;1591.7946912957177
0.18400000000000014;-10363841916.0;-10332641602.0;-298824.0;-4799.954479121952;-4859.020468419313;39.58316246701543;179.44567740710227;666.6666666666666;-487.22098925956436
0.18800000000000014;-10383040865.0;-10352142334.0;325.0;-4799.737036943541;-4858.0530564152305;57.67687339961776;54.36054460278683;-83.33333333333333;137.69387793612015
0.19200000000000014;-10402239985.0;-10371423340.0;81840.0;-4799.779628848973;-4827.275365714267;32.313293260490354;-10.64797635785908;583.3333333333334;-593.9813096911925
0.19600000000000015;-10421439567.0;-10390660400.0;119878.0;-4799.895358387421;-4797.557566543751;4.9950484999826585;-28.93238461206238;2250.0;-2278.9323846120624
0.20000000000000015;-10440639519.0;-10409952393.0;212569.0;-4799.987661494027;-4829.739113628619;42.66798938787997;-23.075776651467095;5750.0;-5773.075776651467
0.20400000000000015;-10459839643.0;-10429194946.0;255396.0;-4800.030884876546;-4816.742904374577;32.13538735046768;-10.805845629874966;1333.3333333333333;-1344.1391789632082
0.20800000000000016;-10479039788.0;-10448470459.0;330891.0;-4800.035922574419;-4822.751788213223;42.6009901618545;-1.2594244681167766;1166.6666666666667;-1167.9260911347835
0.21200000000000016;-10498239881.0;-10467658081.0;318381.0;-4800.023000515509;-4808.866112673513;27.93634369047959;3.2305147274200863;-166.66666666666666;169.89718139408674
0.21600000000000016;-10517439912.0;-10486790771.0;250947.0;-4800.007648835164;-4775.337808741816;-9.636140920381877;3.83792008619821;1916.6666666666667;-1912.8287465804685
0.22000000000000017;-10536639902.0;-10505835571.0;95678.0;-4799.997206007507;-4762.867013142593;-31.409296386652386;2.6107069143108674;3583.3333333333335;-3580.7226264190226
0.22400000000000017;-10555839874.0;-10524913330.0;-26578.0;-4799.992761534986;-4767.834728502035;-33.76354986635033;1.1111181302112527;3083.3333333333335;-3082.2222152031222
0.22800000000000017;-10575039845.0;-10544062500.0;-77391.0;-4799.992437648363;-4787.700597279668;-16.93836775233376;0.08097165573417442;2000.0;-1999.9190283442658
0.23200000000000018;-10594239821.0;-10563123779.0;-216084.0;-4799.993886702124;-4768.925918240942;-44.03178091983045;-0.36226344013812195;-666.6666666666666;666.3044032265285
0.23600000000000018;-10613439804.0;-10582185059.0;-354777.0;-4799.995483045697;-4753.787547184743;-67.49208688862655;-0.39908589337755984;-250.0;249.60091410662244
0.24000000000000019;-10632639791.0;-10601114502.0;-625312.0;-4799.996521178812;-4748.177496003323;-89.3357351334671;-0.2595332787223015;3416.6666666666665;-3416.926199945389
0.2440000000000002;-10651839779.0;-10620175781.0;-764018.0;-4799.996937212385;-4750.301749788314;-95.53521550727237;-0.10400839323665423;1000.0;-1000.1040083932367
0.2480000000000002;-10671039768.0;-10639352417.0;-787369.0;-4799.996947922409;-4789.50721431394;-57.73160573282257;-0.0026775060177897103;-166.66666666666666;166.66398916064887
0.25200000000000017;-10690239756.0;-10658474121.0;-865654.0;-4799.996797423457;-4781.3045415248425;-70.63163749621344;0.03762473807000788;-4750.0;4750.03762473807
0.25600000000000017;-10709439744.0;-10677661743.0;-878020.0;-4799.996645574137;-4800.203389468841;-52.47469872028432;0.03796232999775384;-1416.6666666666667;1416.7046289966645
0.2600000000000002;-10728639731.0;-10696854858.0;-884893.0;-4799.9965563812575;-4815.438118581936;-37.65219951756444;0.02229821984656155;-1333.3333333333333;1333.3556315531798
0.2640000000000002;-10747839718.0;-10716130371.0;-809368.0;-4799.996530755452;-4798.690011818328;-49.868679281995355;0.006406451348084374;-3166.6666666666665;3166.6730731180146
0.2680000000000002;-10767039705.0;-10735416870.0;-722856.0;-4799.996544191601;-4827.379992874749;-15.98791386891844;-0.0033590372368053067;-2166.6666666666665;2166.6633076294297
0.2720000000000002;-10786239692.0;-10754769287.0;-570426.0;-4799.996571655406;-4831.253640600771;-2.968455631879806;-0.006865951263534953;-4166.666666666667;4166.659800715403
0.2760000000000002;-10805439680.0;-10774302979.0;-236721.0;-4799.9965976955555;-4878.32828064578;64.128465643862;-0.0065100373376481;-2333.3333333333335;2333.326823295996
0.2800000000000002;-10824639667.0;-10793677368.0;-62319.0;-4799.99661672707;-4854.395977198713;50.660255379737464;-0.004757878741656896;-4333.333333333333;4333.328575454591
0.2840000000000002;-10843839654.0;-10812974854.0;35179.0;-4799.996629268746;-4814.589798718684;16.703933630046777;-0.003135418864985695;-83.33333333333333;83.33019791446834
0.2880000000000002;-10863039642.0;-10832387695.0;248033.0;-4799.996638073831;-4849.452266614683;64.33762502658556;-0.0022012711724528344;1916.6666666666667;-1916.6688679378392
0.2920000000000002;-10882239629.0;-10851729126.0;389477.0;-4799.996645707442;-4818.604822695494;41.97681000924058;-0.0019084029645455303;250.0;-250.00190840296455
0.2960000000000002;-10901439617.0;-10871037598.0;497961.0;-4799.996653659025;-4834.4316626602185;64.31268161149;-0.0019878955299645895;1916.6666666666667;-1916.6686545621967
0.3000000000000002;-10920639604.0;-10890230713.0;491089.0;-4799.99666240063;-4810.078444239833;39.54713542446825;-0.0021854013994015986;1833.3333333333333;-1833.3355187347327
0.3040000000000002;-10939839592.0;-10909500732.0;561120.0;-4799.996671837615;-4821.53722125046;55.207764172083444;-0.002359246309424634;4000.0;-4000.0023592463094
0.3080000000000002;-10959039580.0;-10928748779.0;609180.0;-4799.996681650281;-4822.508105912134;59.06223982103347;-0.0024531664166715927;500.0;-500.0024531664167
0.3120000000000002;-10978239567.0;-10947892456.0;552869.0;-4799.996691582402;-4777.426312707149;10.60177703426325;-0.0024830301299516577;0.0;-0.0024830301299516577
0.3160000000000002;-10997439555.0;-10967041626.0;502051.0;-4799.996701496056;-4788.440059092872;18.566433562176826;-0.0024784135348454583;2416.6666666666665;-2416.6691450802014
0.32000000000000023;-11016639543.0;-10986190796.0;451234.0;-4799.996711353733;-4794.919249243476;21.9965937886127;-0.0024644193672429537;2083.3333333333335;-2083.3357977527007
0.32400000000000023;-11035839531.0;-11005521240.0;581690.0;-4799.996721166399;-4830.06996087005;64.97465552354333;-0.0024531664166715927;-83.33333333333333;83.33088016691666
0.32800000000000024;-11055039518.0;-11024637451.0;497913.0;-4799.996730965214;-4788.609014430009;18.487079243396693;-0.0024497037429682678;-1833.3333333333333;1833.3308836295903
0.33200000000000024;-11074239506.0;-11043803101.0;463575.0;-4799.996740781918;-4772.445667062387;0.2634420685008081;-0.0024541759557905607;-1083.3333333333333;1083.3308791573775
0.33600000000000024;-11093439494.0;-11062979736.0;440223.0;-4799.996750628054;-4787.6378297338115;14.054474933839629;-0.002461533995301579;2250.0;-2250.0024615339953
0.34000000000000025;-11112639482.0;-11081854248.0;114747.0;-4799.996760503044;-4714.782566585593;-78.32935804276804;-0.002468747652528691;3250.0;-3250.0024687476525
0.34400000000000025;-11131839470.0;-11100899048.0;-40441.0;-4799.996770411504;-4762.405538856372;-40.01767562934219;-0.002477115003785002;6000.0;-6000.002477115004
0.34800000000000025;-11151039458.0;-11119965820.0;-173657.0;-4799.996780337854;-4775.455234792329;-34.96094958139474;-0.0024815874439809704;1833.3333333333333;-1833.3358149207772
0.35200000000000026;-11170239446.0;-11139060059.0;-279406.0;-4799.996790298252;-4760.2536557578815;-56.507478531179004;-0.0024900994048948633;-1416.6666666666667;1416.6641765672618
0.35600000000000026;-11189439434.0;-11158055420.0;-484033.0;-4799.996800273076;-4748.6525068636465;-80.38625736521863;-0.002493706006134744;-2333.3333333333335;2333.3308396273274
0.36000000000000026;-11208639423.0;-11177100220.0;-639221.0;-4799.996810268099;-4742.4382585745525;-95.91179562017987;-0.0024987557480926625;-166.66666666666666;166.66416791091856
0.36400000000000027;-11227839411.0;-11196232910.0;-706520.0;-4799.996820286781;-4782.284936869815;-60.10306730757111;-0.0025046706468856428;1500.0;-1500.0025046706469
0.36800000000000027;-11247039399.0;-11215332642.0;-806776.0;-4799.996830325085;-4778.500228922546;-69.90314525930535;-0.002509576006559655;-2083.3333333333335;2083.330823757327
0.3720000000000003;-11266239387.0;-11234558716.0;-780690.0;-4799.996840389356;-4812.16782615257;-34.67039805550576;-0.002516067752367235;-1666.6666666666667;1666.6641505989144
0.3760000000000003;-11285439376.0;-11253779297.0;-760097.0;-4799.99685046921;-4820.957936768718;-24.644717487960406;-0.0025199633455486037;-3333.3333333333335;3333.330813369988
0.3800000000000003;-11304639364.0;-11273148193.0;-591190.0;-4799.9968605756085;-4835.062115003504;-0.4061293234180994;-0.0025265997010137653;-4666.666666666667;4666.664140066966
0.3840000000000003;-11323839352.0;-11292489624.0;-449747.0;-4799.996870704514;-4834.901643844634;7.919969427557589;-0.0025322262899862835;-4166.666666666667;4166.664134440377
0.3880000000000003;-11343039341.0;-11311710205.0;-429154.0;-4799.996880846691;-4805.8114465289045;-19.934658003457116;-0.0025355443540320266;-1916.6666666666667;1916.6641311223127
0.3920000000000003;-11362239329.0;-11331062622.0;-276726.0;-4799.996891017723;-4846.881350268423;30.280915601984816;-0.0025427580112591386;2083.3333333333335;-2083.3358760913447
0.3960000000000003;-11381439318.0;-11350458984.0;-80352.0;-4799.996901202028;-4857.656141841054;52.83813702106545;-0.002546076302678557;-833.3333333333334;833.3307872570307
0.4000000000000003;-11400639306.0;-11369866333.0;127008.0;-4799.9969114163405;-4840.197606539205;47.82119154323664;-0.0025535780423524557;-2916.6666666666665;2916.664113088624
0.4040000000000003;-11419839295.0;-11389196777.0;257464.0;-4799.9969216456575;-4837.629463205822;53.080398013794365;-0.002557329253249918;-1833.3333333333333;1833.33077600408
0.4080000000000003;-11439039284.0;-11408505249.0;365947.0;-4799.996931893441;-4825.282591720201;47.242496307790134;-0.0025619458483561175;750.0;-750.0025619458484
0.4120000000000003;-11458239272.0;-11427945557.0;606266.0;-4799.996942166038;-4862.591785329357;98.97081968050406;-0.002568149284343235;1750.0;-1750.0025681492843
0.4160000000000003;-11477439261.0;-11447155151.0;615872.0;-4799.996952454794;-4820.731935401313;57.687319494897565;-0.002572189032434835;416.6666666666667;-416.6692388556991
0.4200000000000003;-11496637093.0;-11466364746.0;625478.0;-4799.457902542749;-4794.154901369274;31.686635184089027;134.76247801122554;2166.6666666666665;-2031.904188655441
0.4240000000000003;-11515826256.0;-11485502930.0;564529.0;-4797.290516206417;-4786.734294769011;20.82280724194061;541.8465840830322;4166.666666666667;-3624.8200825836348
0.4280000000000003;-11534998134.0;-11504729004.0;596195.0;-4792.969180126837;-4794.434282264598;31.604256043253372;1080.3340198949627;2083.3333333333335;-1002.9993134383708
0.43200000000000033;-11554128918.0;-11523977051.0;661881.0;-4782.695856640807;-4811.797959851839;55.92094635079411;2568.330871507669;666.6666666666666;1901.6642048410026
0.43600000000000033;-11573163052.0;-11543093262.0;622407.0;-4758.533305225156;-4787.941782982812;36.364914768933886;6040.637853912585;-583.3333333333334;6623.971187245918
0.44000000000000034;-11592040888.0;-11562165527.0;601967.0;-4719.458592634248;-4764.734617378987;27.67665957988538;9768.678147727087;2333.3333333333335;7435.344814393753
0.44400000000000034;-11610644066.0;-11580908203.0;371912.0;-4650.794281148073;-4693.284803570427;-27.582846104401142;17166.07787154362;6583.333333333333;10582.744538210289
0.44800000000000034;-11628915578.0;-11599568481.0;262336.0;-4567.877730969675;-4647.221213105343;-29.50184629856085;20729.13754459955;9250.0;11479.137544599553
0.45200000000000035;-11646725179.0;-11618036499.0;257067.0;-4452.400146554027;-4604.678370396242;1.7808958727318895;28869.396103912095;11333.333333333334;17536.062770578763
0.45600000000000035;-11663940184.0;-11636059570.0;189823.0;-4303.751027007145;-4494.135452269644;-17.053679977687352;37162.2798867204;13166.666666666666;23995.613220053732
0.46000000000000035;-11680418632.0;-11653577271.0;130965.0;-4119.611789302298;-4363.127322344936;-23.154497422427085;46034.80942621172;20166.666666666668;25868.142759545055
0.46400000000000036;-11696011876.0;-11670309448.0;-63314.0;-3898.3108373660957;-4171.552640640281;-63.85988672734766;55325.23798405066;29750.0;25575.23798405066
0.46800000000000036;-11710582195.0;-11686398926.0;-105630.0;-3642.5795185513266;-4012.846352469973;-26.43980806283298;63932.829703692274;39166.666666666664;24766.163037025613
0.47200000000000036;-11724022526.0;-11701614990.0;-82423.0;-3360.0827444650135;-3787.5832644666734;-15.576166056345755;70624.19352157826;43666.666666666664;26957.5268549116
