Zeit[sec];Sollposition[°];Istposition[°];Positionsschleppfehler[°];Sollgeschwindigkeit[°/s];Istgeschwindigkeit[°/s];Geschwindigkeitsdifferenz[°/s];Sollbeschleunigung[°/s*s];Istbeschleunigung[°/s*s];Beschleunigungsdifferenz[°/s*s]
0.0;0.0;0.0;0.0;-0.0;-0.21390374704163315;0.21390374704163315;0.0;0.0;0.0
0.004;0.0;0.0;0.0;-0.0;-0.023839607568038903;0.023839607568038903;0.0;0.0;0.0
0.008;0.0;0.0;0.0;-0.0;0.36397921948938317;-0.36397921948938317;0.0;0.0;0.0
0.012;0.0;0.0;0.0;-0.0;0.0405655435005499;-0.0405655435005499;0.0;0.0;0.0
0.016;0.0;0.0;0.0;-0.0;0.08954315017269406;-0.08954315017269406;0.0;0.0;0.0
0.02;0.0;0.0;0.0;-0.0;0.07861207545272762;-0.07861207545272762;0.0;0.0;0.0
0.024;0.0;0.0;0.0;-0.0;0.008761328657498128;-0.008761328657498128;0.0;0.0;0.0
0.028;0.0;0.0;0.0;-0.0;-0.40087094157991543;0.40087094157991543;0.0;0.0;0.0
0.032;0.0;0.0;0.0;-0.0;-0.044677131957091824;0.044677131957091824;0.0;0.0;0.0
0.036000000000000004;-226.0;0.0;0.0;-0.05657887461961161;0.4272864399328605;-0.4272864399328605;-14.144718654902903;0.0;-14.144718654902903
0.04000000000000001;-2481.0;0.0;-90.0;-0.5638465561337184;0.04762114356585443;-0.07392378330761451;-126.81692037852669;0.0;-126.81692037852669
0.04400000000000001;-13567.0;0.0;-1119.0;-2.771420159433329;0.005307384233574213;-0.3107954516725312;-551.8934008249028;0.0;-551.8934008249028
0.048000000000000015;-50209.0;0.0;-6863.0;-9.16048860633856;0.0005915088402662708;-1.7318432337733574;-1597.2671117263078;0.0;-1597.2671117263078
0.05200000000000002;-143163.0;0.0;-28030.0;-23.238636773289983;6.592375692338428e-05;-6.4970068916118615;-3519.5370417378554;0.0;-3519.5370417378554
0.05600000000000002;-337577.0;0.0;-86849.0;-48.60328274499087;7.347213483634681e-06;-18.43933278275209;-6341.161492925222;0.0;-6341.161492925222
0.060000000000000026;-688718.0;0.0;-219700.0;-87.78526726563496;8.188481435734906e-07;-42.659934247908495;-9795.496130161022;0.0;-9795.496130161022
0.06400000000000003;-1256468.0;-10986.0;-464674.0;-141.9374874219807;-0.14679423318365928;-83.82389418324404;-13538.055039086437;-166.66666666666666;-13371.388372419771
0.06800000000000003;-2102523.0;-38452.0;-873313.0;-211.51374788175997;-7.422345034458378;-139.15630845417706;-17394.065114944817;-166.66666666666666;-17227.39844827815
0.07200000000000004;-3289687.0;-87891.0;-1500698.0;-296.79103209563937;-12.221561263793237;-221.5145421364416;-21319.32105346985;-833.3333333333334;-20485.987720136516
0.07600000000000004;-4879899.0;-181274.0;-2386984.0;-397.55295409322775;-22.963777245437925;-324.5937199684278;-25190.480499397097;-1250.0;-23940.480499397097
0.08000000000000004;-6930270.0;-368042.0;-3545183.0;-512.592831666909;-47.78076267432741;-440.9039945011338;-28759.969393420306;-2583.3333333333335;-26176.636060086974
0.08400000000000005;-9489428.0;-774536.0;-4908985.0;-639.7894329726873;-107.41581870320238;-546.2446024631982;-31799.15032644459;-5083.333333333333;-26715.816993111257
0.08800000000000005;-12595292.0;-2312622.0;-5620300.0;-776.4659530195532;-425.1695421525681;-378.85359270252826;-34169.13001171648;-16333.333333333334;-17835.796678383143
0.09200000000000005;-16273840.0;-5300903.0;-5404956.0;-919.6370244885719;-748.0889803965424;-177.55837261832562;-35792.76786725467;-46333.333333333336;10540.565466078668
0.09600000000000006;-20539477.0;-9014282.0;-5021298.0;-1066.4091718515317;-927.5401796262889;-120.80584119808884;-36693.03684073995;-64916.666666666664;28223.629825926713
0.10000000000000006;-25397605.0;-13216553.0;-4726991.0;-1214.532022399755;-1051.8389019536392;-128.41270565265472;-37030.71263705584;-65083.333333333336;28052.620696277492
0.10400000000000006;-30848309.0;-17957153.0;-4483502.0;-1362.6757214797435;-1192.362200197866;-124.70596042554166;-37035.92476999711;-43833.333333333336;6797.4085633362265
0.10800000000000007;-36889580.0;-23345947.0;-4184311.0;-1510.317762788447;-1349.505714818974;-102.82043519326749;-36910.51032717587;-34916.666666666664;-1993.8436605092065
0.11200000000000007;-43519332.0;-29410400.0;-3801241.0;-1657.4378627906117;-1521.05304072;-62.74577674495231;-36780.02500054117;-36500.0;-280.02500054117263
0.11600000000000008;-50736213.0;-36051636.0;-3431139.0;-1804.2203187857422;-1662.8469500638341;-52.47552053811546;-36695.61399878262;-39833.333333333336;3137.7193345507167
0.12000000000000008;-58539659.0;-43275146.0;-3066720.0;-1950.8613695783513;-1809.421931962751;-37.219809318105035;-36660.26269815228;-38666.666666666664;2006.403968514384
0.12400000000000008;-66929614.0;-51026001.0;-2761870.0;-2097.4885209568442;-1943.4605814728375;-36.80097923265953;-36656.787844623235;-36833.333333333336;176.5454887100973
0.12800000000000009;-75906232.0;-59139404.0;-2681018.0;-2244.15453759287;-2036.2509685579564;-87.17032458573954;-36666.50415900642;-32833.333333333336;-3833.1708256730863
0.1320000000000001;-85469686.0;-67791138.0;-2648405.0;-2390.863376802622;-2170.1564960008977;-98.50508043051286;-36677.209802438025;-30083.333333333332;-6593.876469104696
0.1360000000000001;-95620082.0;-77162476.0;-2482919.0;-2537.598925633543;-2362.3282919140784;-45.90015390861845;-36683.88720773021;-30833.333333333332;-5850.553874396876
0.1400000000000001;-106357458.0;-87324829.0;-2113295.0;-2684.34386693293;-2552.0375690068818;12.983776940494863;-36686.23532484673;-38500.0;1813.7646751532657
0.1440000000000001;-117681809.0;-98085938.0;-1731870.0;-2831.0874211815394;-2700.0247798485216;30.633146485909947;-36685.8885621524;-44000.0;7314.1114378476
0.1480000000000001;-129593112.0;-109297485.0;-1486987.0;-2977.8257454089553;-2800.499910614742;-5.106090069299171;-36684.581056853975;-42583.333333333336;5898.752276479364
0.1520000000000001;-142091350.0;-120701294.0;-1636807.0;-3124.5593160559756;-2850.964422341378;-107.82532709684028;-36683.392661755075;-31750.0;-4933.392661755079
0.1560000000000001;-155176459.0;-132467651.0;-2011024.0;-3271.277076214491;-2959.417011072163;-162.200539517773;-36679.44003962884;-21916.666666666668;-14762.773372962176
0.16000000000000011;-168848097.0;-144959106.0;-2247053.0;-3417.909342867778;-3133.0251945420428;-145.46893293627272;-36658.06666332173;-23166.666666666668;-13491.399996655065
0.16400000000000012;-183105238.0;-158373413.0;-2146966.0;-3564.2852029695955;-3364.189866033634;-56.68447640378963;-36593.965025454396;-34083.333333333336;-2510.631692121059
0.16800000000000012;-197945225.0;-172831421.0;-1589302.0;-3709.9965963332147;-3626.7889035703765;83.36300673246387;-36427.848340904806;-50000.0;13572.151659095198
0.17200000000000013;-213360877.0;-187992554.0;-912969.0;-3853.912609012441;-3789.8161483978374;129.35865875537183;-35979.00316980656;-57000.0;21020.99683019344
0.17600000000000013;-229335742.0;-203312988.0;-657349.0;-3993.7160721847285;-3831.660500462643;37.191224485305156;-34950.8657930719;-48166.666666666664;13215.800873594766
0.18000000000000013;-245840608.0;-218984985.0;-619350.0;-4126.216312916502;-3924.046365412346;-11.084924432002026;-33125.06018294334;-31916.666666666668;-1208.3935162766757
0.18400000000000014;-262833353.0;-235354614.0;-431447.0;-4248.185996445031;-4094.837111691576;30.853704289984762;-30492.420882132363;-24083.333333333332;-6409.087548799032
0.18800000000000014;-280261151.0;-252224121.0;-257137.0;-4356.949393474015;-4216.6043402345485;31.748431173328754;-27190.84925724587;-28583.333333333332;1392.4840760874595
0.19200000000000014;-298063635.0;-269302368.0;-341268.0;-4450.620761716199;-4265.05601119456;-40.21283062996099;-23417.842060546034;-31666.666666666668;8248.824606120632
0.19600000000000015;-316176332.0;-286743164.0;-474278.0;-4528.173999954786;-4362.114349861377;-51.73094597606814;-19388.309559646812;-25583.333333333332;6195.023773686518
0.20000000000000015;-334533671.0;-304590454.0;-550271.0;-4589.334709857352;-4468.178018611604;-36.30418762355475;-15290.177475641485;-20500.0;5209.822524358515
0.20400000000000015;-353071539.0;-322943115.0;-405486.0;-4634.466686060972;-4584.896762308886;15.492012019129106;-11282.994050905018;-23750.0;12467.005949094982
0.20800000000000016;-371730845.0;-341444092.0;-331991.0;-4664.826370256671;-4618.321015685821;-2.825067014553497;-7589.92104892468;-24833.333333333332;17243.412284408652
0.21200000000000016;-390462350.0;-360109863.0;-251179.0;-4682.875875197189;-4678.90373791049;21.863659609057322;-4512.376235129523;-19250.0;14737.623764870477
0.21600000000000016;-409229969.0;-379237061.0;188799.0;-4691.904474779209;-4783.818517192383;120.13204602489895;-2257.149895504881;-16083.333333333334;13826.183437828453
0.22000000000000017;-428010703.0;-398677368.0;883705.0;-4695.1833681760445;-4853.17441168251;204.82391164093224;-819.7233492089708;-18166.666666666668;17346.9433174577
0.22400000000000017;-446792283.0;-417744141.0;1177871.0;-4695.39474154015;-4749.390256380829;106.88710655315936;-52.843341026346025;-15666.666666666666;15613.82332564032
0.22800000000000017;-465569993.0;-436525269.0;1178006.0;-4694.427385847261;-4702.741718153069;58.14801400686156;241.8389232223035;750.0;-508.1610767776965
0.23200000000000018;-484343461.0;-455317383.0;1190080.0;-4693.366776291852;-4700.146976894556;56.310455287511104;265.15238885212966;11166.666666666666;-10901.514277814536
0.23600000000000018;-503114067.0;-474158936.0;1255582.0;-4692.651296679335;-4696.872761647536;56.85024881720801;178.86990312922535;9666.666666666666;-9487.79676353744
0.24000000000000019;-521883358.0;-492593994.0;918282.0;-4692.322470802476;-4610.163664700879;-43.439523613092206;82.20646921472508;4916.666666666667;-4834.460197451942
0.2440000000000002;-540652378.0;-510891724.0;445910.0;-4692.254828986199;-4584.209618508083;-89.14136611233971;16.91045406937519;9333.333333333334;-9316.422879263959
0.2480000000000002;-559421598.0;-529403687.0;188682.0;-4692.304604677278;-4634.769634175317;-49.41461841803357;-12.443922769762139;9500.0;-9512.443922769762
0.25200000000000017;-578191096.0;-547783813.0;-200293.0;-4692.374370973933;-4584.350591074886;-116.53696853384918;-17.44157416374037;2583.3333333333335;-2600.774907497074
0.25600000000000017;-596960781.0;-565933228.0;-820207.0;-4692.420981430193;-4538.897557893567;-188.70331737579727;-11.652614065042144;2166.6666666666665;-2178.3192807317087
0.2600000000000002;-615730535.0;-584373779.0;-1149226.0;-4692.43823611657;-4617.978668708495;-123.83049179616046;-4.313671594218249;2500.0;-2504.3136715942182
0.2640000000000002;-634500280.0;-603248291.0;-1044426.0;-4692.436150610659;-4723.554556506716;-13.783311028877506;0.5213764777636243;-3166.6666666666665;3167.18804314443
0.2680000000000002;-653269988.0;-622397461.0;-665006.0;-4692.426773626738;-4782.754309027783;61.72174288339738;2.3442459801117366;-17000.0;17002.34424598011
0.2720000000000002;-672039661.0;-641288452.0;-543745.0;-4692.417989156782;-4715.591679196655;-0.22180080615180486;2.1961174891202973;-16250.0;16252.19611748912
0.2760000000000002;-690809313.0;-660020142.0;-581749.0;-4692.412810435379;-4692.416728332479;-25.02182433244343;1.294680350838462;-2416.6666666666665;2417.961347017505
0.2800000000000002;-709578958.0;-678845215.0;-526341.0;-4692.411071914223;-4706.514353875593;-8.53429647057601;0.43463028896439937;5583.333333333333;-5582.898703044369
0.2840000000000002;-728348605.0;-697785645.0;-355561.0;-4692.41137953579;-4738.769401978284;31.068127495305816;-0.07690539177929168;3333.3333333333335;-3333.410238725113
0.2880000000000002;-747118255.0;-716687622.0;-223229.0;-4692.412383487729;-4726.837180319215;24.827129251207225;-0.25098798482758866;-3166.6666666666665;3166.415678681839
0.2920000000000002;-765887909.0;-735759888.0;79388.0;-4692.413274860072;-4771.831723750923;82.83363196634491;-0.22284308579401113;-4166.666666666667;4166.443823580873
0.2960000000000002;-784657565.0;-755095825.0;645674.0;-4692.4137749913925;-4819.009348433723;154.36059941332405;-0.12503283005571575;-7416.666666666667;7416.541633836611
0.3000000000000002;-803427222.0;-774069214.0;849408.0;-4692.413925109254;-4722.564145307726;66.67522137628293;-0.03752946531676571;-5583.333333333333;5583.295803868016
0.3040000000000002;-822196878.0;-792531738.0;542276.0;-4692.413877877852;-4629.066072034537;-40.02989154577881;0.01180785034193832;7000.0;-6999.988192149658
0.3080000000000002;-840966534.0;-811109619.0;350500.0;-4692.413770876652;-4647.316320671523;-30.0260848316193;0.026750300094136037;14916.666666666666;-14916.639916366572
0.3120000000000002;-859736190.0;-829912720.0;383945.0;-4692.413682064037;-4692.449766156655;16.545565426360554;0.02220315377599036;10333.333333333334;-10333.311130179558
0.3160000000000002;-878505845.0;-848402710.0;104279.0;-4692.413635282825;-4621.88291391386;-66.0468253769368;0.01169530287370435;-416.6666666666667;416.6783619695404
0.32000000000000023;-897275500.0;-866755371.0;-312715.0;-4692.413623558715;-4580.958673698773;-124.90173533762754;0.002931027665908914;2166.6666666666665;-2166.6637356390006
0.32400000000000023;-916045156.0;-885618896.0;-218845.0;-4692.413630394811;-4727.304128179346;25.480162270839173;-0.0017090239907702198;3333.3333333333335;-3333.3350423573243
0.32800000000000024;-934814811.0;-904839478.0;232081.0;-4692.413641959166;-4799.183106406796;116.74896306897699;-0.002891088797696284;-9000.0;8999.997108911202
0.33200000000000024;-953584467.0;-924016113.0;639061.0;-4692.413650891466;-4788.001220563521;123.06720862367547;-0.0022330750653054565;-16583.333333333332;16583.331100258267
0.33600000000000024;-972354122.0;-942868652.0;721944.0;-4692.413655286788;-4708.85990094562;47.48984751270018;-0.0010988303529302357;-10083.333333333334;10083.332234502981
0.34000000000000025;-991123778.0;-961726685.0;810322.0;-4692.413656158284;-4726.486925916797;68.91711933499118;-0.00021787400328321382;6083.333333333333;-6083.333551207336
0.34400000000000025;-1009893433.0;-980639648.0;953629.0;-4692.413655285637;-4720.605219389432;69.19761078286501;0.0002181616309826495;5916.666666666667;-5916.666448505036
0.34800000000000025;-1028663089.0;-999294434.0;838760.0;-4692.413654059249;-4655.487267010597;-0.8597087965954415;0.0003065970304305665;4916.666666666667;-4916.6663600696365
0.35200000000000026;-1047432744.0;-1017652588.0;427258.0;-4692.413653170964;-4593.189338079705;-80.85222272480223;0.0002220713213318959;6583.333333333333;-6583.333111262012
0.35600000000000026;-1066202400.0;-1036175537.0;180552.0;-4692.413652764147;-4634.4469666721425;-50.20295104209981;0.0001017042450257577;10750.0;-10749.999898295755
0.36000000000000026;-1084972055.0;-1054758911.0;-5730.0;-4692.413652708055;-4641.553456841972;-51.10658617289573;1.402281668561045e-05;4250.0;-4249.999985977183
0.36400000000000027;-1103741711.0;-1072946777.0;-587519.0;-4692.413652813677;-4551.508886246868;-166.1680834974186;-2.6405359676573426e-05;2083.3333333333335;-2083.333359738693
0.36800000000000027;-1122511366.0;-1091206055.0;-1097897.0;-4692.413652942152;-4600.781621448838;-138.84160230142516;-3.211880539311096e-05;5833.333333333333;-5833.333365452138
0.3720000000000003;-1141281022.0;-1110047607.0;-1026000.0;-4692.413653029709;-4714.640109692186;-21.89154317179873;-2.188926373491995e-05;-166.66666666666666;166.66664477740292
0.3760000000000003;-1160050677.0;-1129081421.0;-761842.0;-4692.4136530666465;-4753.430267193324;28.257408217212287;-9.234327080775984e-06;-12500.0;12499.999990765673
0.3800000000000003;-1178820333.0;-1148082275.0;-530643.0;-4692.4136530692585;-4746.995080410372;31.763778366525003;-6.530171958729625e-07;-18416.666666666668;18416.66666601365
0.3840000000000003;-1197589988.0;-1167028198.0;-354376.0;-4692.413653056884;-4739.94343068319;32.29160961573234;3.0936462280806154e-06;-7666.666666666667;7666.666669760313
0.3880000000000003;-1216359644.0;-1185924683.0;-227546.0;-4692.413653043514;-4712.35057700208;10.1524459377506;3.3423930290155113e-06;666.6666666666666;-666.6666633242736
0.3920000000000003;-1235129299.0;-1204486084.0;-435801.0;-4692.413653035057;-4641.051103838042;-70.10199221361472;2.114347807946615e-06;6250.0;-6249.999997885652
0.3960000000000003;-1253898955.0;-1222976074.0;-715466.0;-4692.4136530315745;-4633.106152457583;-90.07253858265176;8.706138032721356e-07;9916.666666666666;-9916.666665796052
0.4000000000000003;-1272668610.0;-1241883545.0;-577651.0;-4692.413653031761;-4739.78270629886;22.530060265133216;-4.661160346586257e-08;5916.666666666667;-5916.666666713279
0.4040000000000003;-1291438266.0;-1261153564.0;-77287.0;-4692.413653033129;-4815.085577553032;119.3485835213678;-3.41970007866621e-07;-8583.333333333334;8583.333332991364
0.4080000000000003;-1310207921.0;-1280385132.0;384625.0;-4692.4136530345595;-4793.500386326826;117.6256082945365;-3.5765879147220403e-07;-17166.666666666668;17166.666666309007
0.4120000000000003;-1328977577.0;-1299127808.0;357646.0;-4692.413653035243;-4682.419570660441;5.384695626747089;-1.709850039333105e-07;-6250.0;6249.999999829015
0.4160000000000003;-1347747232.0;-1317821045.0;281227.0;-4692.413653035616;-4687.2657723827815;6.944880347960861;-9.322320693172514e-08;9916.666666666666;-9916.66666675989
0.4200000000000003;-1366516888.0;-1336690063.0;380590.0;-4692.413653035492;-4713.757958857593;37.709675822213285;3.115019353572279e-08;10250.0;-10249.99999996885
0.4240000000000003;-1385286543.0;-1355333862.0;254733.0;-4692.413653035368;-4650.788871182397;-30.671262853168628;3.092281986027956e-08;3833.3333333333335;-3833.3333333024107
0.4280000000000003;-1404056199.0;-1373659058.0;-189726.0;-4692.413653035243;-4592.531647141479;-108.04022389396141;3.115019353572279e-08;4583.333333333333;-4583.333333302183
0.43200000000000033;-1422825854.0;-1392286377.0;-332063.0;-4692.413653035182;-4675.399696176456;-31.292665858866712;1.546140993013978e-08;8000.0;-7999.999999984539
0.43600000000000033;-1441595510.0;-1411281738.0;-106357.0;-4692.413653035182;-4745.742347658695;48.755343623469344;0.0;-1333.3333333333333;1333.3333333333333
0.44000000000000034;-1460365165.0;-1430375977.0;218226.0;-4692.413653035243;-4762.1024040985585;79.07246906339151;-1.546140993013978e-08;-13583.333333333334;13583.333333317873
0.44400000000000034;-1479134821.0;-1449371338.0;443932.0;-4692.413653035182;-4754.9224459503275;81.5978689151143;1.546140993013978e-08;-12166.666666666666;12166.666666682127
0.44800000000000034;-1497904476.0;-1468542480.0;845418.0;-4692.413653035182;-4789.870425390729;133.80974635550865;0.0;-5000.0;5000.0
0.45200000000000035;-1516674132.0;-1487559814.0;1093097.0;-4692.413653035182;-4745.511246074796;100.10076403961284;0.0;-666.6666666666666;666.6666666666666
0.45600000000000035;-1535443787.0;-1506329956.0;1093583.0;-4692.413653035182;-4677.618145613686;32.22856157850765;0.0;2250.0;-2250.0
0.46000000000000035;-1554213443.0;-1524880371.0;874343.0;-4692.413653035306;-4648.345822696311;-6.471081338870135;-3.115019353572279e-08;10333.333333333334;-10333.333333364484
0.46400000000000036;-1572983098.0;-1543392334.0;616650.0;-4692.413653035243;-4625.611353460078;-40.28634957515533;1.5688783605583012e-08;11750.0;-11749.999999984311
0.46800000000000036;-1591752754.0;-1561876831.0;331492.0;-4692.413653035243;-4616.796781651956;-61.362715383314026;0.0;8583.333333333334;-8583.333333333334
0.47200000000000036;-1610522410.0;-1580037231.0;-277764.0;-4692.413653035306;-4534.213004041524;-170.14450099371788;-1.5688783605583012e-08;5333.333333333333;-5333.333333349022
0.47600000000000037;-1629292065.0;-1598098755.0;-985896.0;-4692.413653034994;-4523.727310880927;-211.079870154329;7.79891706770286e-08;10166.666666666666;-10166.666666588677
0.48000000000000037;-1648061721.0;-1616693115.0;-1161191.0;-4692.413653035182;-4658.987562802334;-83.35730323284952;-4.6838977141305804e-08;4250.0;-4250.000000046839
0.4840000000000004;-1666831376.0;-1635595093.0;-1028869.0;-4692.413653035243;-4718.118796133574;-18.536223901506673;-1.546140993013978e-08;-9750.0;9749.999999984539
0.4880000000000004;-1685601032.0;-1654502563.0;-891054.0;-4692.413653035182;-4714.898558726269;-15.830416308940585;1.546140993013978e-08;-18000.0;18000.00000001546
