Zeit[sec];Sollposition[°];Istposition[°];Positionsschleppfehler[°];Sollgeschwindigkeit[°/s];Istgeschwindigkeit[°/s];Geschwindigkeitsdifferenz[°/s];Sollbeschleunigung[°/s*s];Istbeschleunigung[°/s*s];Beschleunigungsdifferenz[°/s*s]
0.0;0.0;-5493.0;5493.0;-0.0;-1.8971013960369194;2.4244293960369196;0.0;0.0;0.0
0.004;0.0;0.0;0.0;-0.0;1.6509393766352338;-1.6509393766352338;0.0;0.0;0.0
0.008;0.0;0.0;0.0;-0.0;0.7500377247947474;-0.7500377247947474;0.0;0.0;0.0
0.012;0.0;-10986.0;10986.0;-0.0;-3.864399956018179;4.919055956018179;0.0;0.0;0.0
0.016;0.0;10986.0;-10986.0;-0.0;5.935296642157662;-6.989952642157663;0.0;0.0;0.0
0.02;0.0;0.0;0.0;-0.0;-0.3388906474789528;0.3388906474789528;0.0;0.0;0.0
0.024;0.0;-16479.0;16479.0;-0.0;-7.0663460826658655;8.648330082665865;0.0;-83.33333333333333;83.33333333333333
0.028;0.0;-5493.0;5493.0;-0.0;0.015803934222824986;0.511524065777175;0.0;0.0;0.0
0.032;0.0;-5493.0;5493.0;-0.0;-1.1216831050602398;1.6490111050602398;0.0;83.33333333333333;-83.33333333333333
0.036000000000000004;0.0;0.0;0.0;-0.0;-0.7854487000092076;0.7854487000092076;0.0;83.33333333333333;-83.33333333333333
0.04000000000000001;0.0;0.0;0.0;-0.0;1.5389579204444057;-1.5389579204444057;0.0;-83.33333333333333;83.33333333333333
0.04400000000000001;0.0;0.0;0.0;-0.0;0.6694926583555977;-0.6694926583555977;0.0;-83.33333333333333;83.33333333333333
0.048000000000000015;-121.0;-5493.0;5493.0;-0.030314963913883615;-2.162823846760341;2.690151846760341;-7.578740978470904;0.0;-7.578740978470904
0.05200000000000002;-1329.0;-5493.0;5445.0;-0.30210901360410475;-2.653780804462267;3.164481394941723;-67.94851242255528;83.33333333333333;-151.2818457558886
0.05600000000000002;-7269.0;-5493.0;4894.0;-1.484927063118171;-2.051103193778398;2.383027762686051;-295.70451237851654;0.0;-295.70451237851654
0.060000000000000026;-93516.0;5493.0;-9170.0;-21.561730777121248;3.89218359848742;-5.5419889439319245;-5019.200928500769;0.0;-5019.200928500769
0.06400000000000003;-226681.0;5493.0;-46923.0;-33.29122769533158;3.2740348868952363;-17.216778348048724;-2932.3742295525826;0.0;-2932.3742295525826
0.06800000000000003;-460477.0;-21973.0;-123835.0;-58.44903543721255;-5.21103089207989;-32.77178461796068;-6289.451935470243;-166.66666666666666;-6122.785268803576
0.07200000000000004;-815092.0;-32959.0;-285638.0;-88.65387797865729;-3.7061514114884435;-66.91227444174783;-7551.210635361185;-333.3333333333333;-7217.877302027852
0.07600000000000004;-1295437.0;-115356.0;-484350.0;-120.08625337047275;-21.96583739116321;-94.8091371333299;-7858.093847953864;-833.3333333333334;-7024.760514620531
0.08000000000000004;-1896960.0;-373535.0;-629928.0;-150.38067435854404;-75.0296005226093;-86.38282966877104;-7573.605247017824;-2833.3333333333335;-4740.27191368449
0.08400000000000005;-2649489.0;-878906.0;-652211.0;-188.13220956493964;-119.77275801901227;-74.75284184834136;-9437.8838015989;-8333.333333333334;-1104.5504682655665
0.08800000000000005;-3589078.0;-1455688.0;-736113.0;-234.89717808022334;-143.99203434893388;-91.84587547823145;-11691.242128820924;-10333.333333333334;-1357.9087954875906
0.09200000000000005;-4753474.0;-2230225.0;-787387.0;-291.099023649178;-196.75901132653954;-85.28272915047702;-14050.46139223866;-10833.333333333334;-3217.128058905326
0.09600000000000006;-6174632.0;-3197021.0;-848216.0;-355.289391593748;-239.76499938043793;-98.57005482664465;-16047.591986142506;-9750.0;-6297.591986142507
0.10000000000000006;-7875352.0;-4383545.0;-926573.0;-425.18015697905406;-303.16093037467977;-102.0102715011405;-17472.691346326512;-10916.666666666666;-6556.024679659848
0.10400000000000006;-9870322.0;-5795288.0;-1045326.0;-498.7424187315645;-355.1114931761675;-127.86367541246983;-18390.56543812761;-13416.666666666666;-4973.898771460943
0.10800000000000007;-12169160.0;-7404785.0;-1251576.0;-574.7095668581682;-405.2091226798935;-168.87910147026156;-18991.787031650914;-13083.333333333334;-5908.453698317581
0.11200000000000007;-14778207.0;-9371338.0;-1398748.0;-652.2616726276539;-501.8614612705611;-160.84952382905624;-19388.026442371425;-14666.666666666666;-4721.359775704761
0.11600000000000008;-17701146.0;-11733398.0;-1456739.0;-730.7346916324129;-593.2729754820574;-151.586613553505;-19618.25475118977;-18250.0;-1368.2547511897667
0.12000000000000008;-20939597.0;-14441528.0;-1480291.0;-809.6125612966713;-680.4688710312937;-144.559656621082;-19719.467416064588;-21416.666666666668;1697.199250602079
0.12400000000000008;-24493862.0;-17517700.0;-1450315.0;-888.5662593377809;-770.6807326100464;-130.0982390318003;-19738.42451027741;-23583.333333333332;3844.9088230559205
0.12800000000000009;-28363631.0;-20868530.0;-1461302.0;-967.4422866060684;-838.7716634450246;-141.96762245585057;-19719.00681707186;-21666.666666666668;1947.6598495948103
0.1320000000000001;-32548465.0;-24559937.0;-1447402.0;-1046.2084174950976;-931.5355480397634;-126.79179634750813;-19691.532722257307;-20083.333333333332;391.80061107602523
0.1360000000000001;-37048032.0;-28663330.0;-1336848.0;-1124.8917081567072;-1031.4635370424903;-95.08353351800838;-19670.822665402397;-21000.0;1329.1773345976026
0.1400000000000001;-41862163.0;-33013916.0;-1294036.0;-1203.5327993568098;-1082.9063083571616;-118.26474016066913;-19660.272800025665;-21583.333333333332;1923.060533307666
0.1440000000000001;-46990815.0;-37606201.0;-1324194.0;-1282.1627809131796;-1164.0198038475842;-118.71345729669247;-19657.495389092444;-19250.0;-407.4953890924462
0.1480000000000001;-52434005.0;-42775269.0;-1092117.0;-1360.7975396319978;-1298.733997395708;-40.356805410990546;-19658.689679704537;-20583.333333333332;924.6436536287952
0.1520000000000001;-58191770.0;-48087158.0;-1031746.0;-1439.4411938922663;-1333.408154662562;-78.51897286634153;-19660.91356506712;-21000.0;1339.0864349328808
0.1560000000000001;-64264138.0;-53635254.0;-1049721.0;-1518.091857753449;-1393.6490242786224;-98.64196092110546;-19662.665965295673;-20750.0;1087.3340347043268
0.16000000000000011;-70651123.0;-59595337.0;-970295.0;-1596.7461526577476;-1500.6669038654475;-62.64556666947533;-19663.573726074676;-17666.666666666668;-1996.9070594080058
0.16400000000000012;-77352729.0;-65808105.0;-952792.0;-1675.401513504513;-1550.4098292267056;-89.8744157493768;-19663.840211691364;-17916.666666666668;-1747.1735450246974
0.16800000000000012;-84368957.0;-72180176.0;-1090605.0;-1754.0567507099122;-1594.9168667624715;-137.25212247179888;-19663.80930134977;-17833.333333333332;-1830.4759680164402
0.17200000000000013;-91699804.0;-79052124.0;-1043163.0;-1832.7117178024673;-1728.547518799018;-77.72234401439187;-19663.741773138783;-17833.333333333332;-1830.4084398054492
0.17600000000000013;-99345271.0;-86105347.0;-1129066.0;-1911.3667626128502;-1753.2499008413713;-139.92178080637814;-19663.76120259571;-18666.666666666668;-997.0945359290404
0.18000000000000013;-107305361.0;-93532104.0;-1156054.0;-1990.0223113825662;-1877.7425472464413;-96.67498189045864;-19663.887192429;-18333.333333333332;-1330.5538590956694
0.18400000000000014;-115580076.0;-101431274.0;-1025251.0;-2068.6786704480514;-1968.90220190249;-71.61348340141853;-19664.08976637132;-23500.0;3835.910233628681
0.18800000000000014;-124169420.0;-109550171.0;-989344.0;-2147.335993091887;-2039.8013449880764;-75.92313540227133;-19664.330660958854;-20083.333333333332;419.0026723744786
0.19200000000000014;-133072333.0;-118185425.0;-751707.0;-2225.7281168663853;-2157.6828149741973;-13.885249777568333;-19598.03094362462;-25666.666666666668;6068.635723042046
0.19600000000000015;-142284635.0;-127056885.0;-592073.0;-2303.0752924724966;-2232.325558192359;-2.46981234931809;-19336.793901527813;-21166.666666666668;1829.8727651388554
0.20000000000000015;-151798786.0;-136087646.0;-585055.0;-2378.537785074194;-2242.944157019126;-69.15685757521896;-18865.62315042431;-21500.0;2634.3768495756876
0.20400000000000015;-161604004.0;-145316162.0;-686707.0;-2451.3041856020686;-2317.0597253170226;-81.40593226353258;-18191.6001319687;-14083.333333333334;-4108.2667986353645
0.20800000000000016;-171684294.0;-154747925.0;-882730.0;-2520.072508851115;-2358.2495303208634;-133.43891254503433;-17192.080812261564;-12916.666666666666;-4275.414145594899
0.21200000000000016;-182017960.0;-164630127.0;-913102.0;-2583.4162469782373;-2472.357639779728;-93.44353785744352;-15835.934531780595;-12750.0;-3085.9345317805946
0.21600000000000016;-192579409.0;-174638672.0;-1083695.0;-2640.362271582728;-2503.1351994664783;-145.68389241209707;-14236.50615112274;-19083.333333333332;4846.827182210593
0.22000000000000017;-203340281.0;-184872437.0;-1272424.0;-2690.21780072705;-2558.90878480309;-168.86722043360396;-12463.882286080434;-15583.333333333334;3119.4510472529
0.22400000000000017;-214269676.0;-195726929.0;-1057114.0;-2732.348639915581;-2718.5994814158335;-42.67900436705804;-10532.709797132724;-18500.0;7967.290202867275
0.22800000000000017;-225335638.0;-206669312.0;-941251.0;-2766.4904564639205;-2730.5209509800984;-66.46904294976093;-8535.454137084911;-20250.0;11714.545862915089
0.23200000000000018;-236507922.0;-217672119.0;-920999.0;-2793.070857655719;-2747.882313016285;-86.17206730895623;-6645.100297949625;-18000.0;11354.899702050374
0.23600000000000018;-247758928.0;-228916626.0;-783808.0;-2812.7512437873943;-2828.727445854316;-23.34724265704517;-4920.096532918819;-11333.333333333334;6413.236800414515
0.24000000000000019;-259064086.0;-240194092.0;-709215.0;-2826.2894015264537;-2817.987890136967;-50.81482857569381;-3384.5394347648607;-7666.666666666667;4282.127231901806
0.2440000000000002;-270404119.0;-251268311.0;-907012.0;-2835.008048642129;-2766.6403749338397;-138.43637410088377;-2179.661778918785;-4333.333333333333;2153.671554414548
0.2480000000000002;-281765607.0;-262584229.0;-909762.0;-2840.3719214405987;-2843.3123673969203;-73.69166833903;-1340.968199617464;-1333.3333333333333;-7.634866284130794
0.25200000000000017;-293139102.0;-274048462.0;-793864.0;-2843.3735742730646;-2866.4324207671043;-46.86217780615834;-750.4132081164698;-2500.0;1749.5867918835302
0.25600000000000017;-304517939.0;-285347900.0;-860549.0;-2844.7092927726194;-2820.3787436600132;-103.76456128565496;-333.9296248886967;-4583.333333333333;4249.403708444636
0.2600000000000002;-315897995.0;-296932983.0;-651008.0;-2845.01372931154;-2901.2243107426884;-5.1580352352807495;-76.1091347301317;-5416.666666666667;5340.557531936535
0.2640000000000002;-327277293.0;-308616943.0;-346337.0;-2844.8243000601988;-2910.1406360504297;32.07011342252554;47.35731283528821;-5083.333333333333;5130.690646168621
0.2680000000000002;-338655326.0;-319861450.0;-481579.0;-2844.508261545402;-2816.982737138838;-74.18568662652933;79.00962869916839;-1250.0;1329.0096286991684
0.2720000000000002;-350032338.0;-331309204.0;-412626.0;-2844.252767819872;-2852.8738367681926;-31.438364896005623;63.8734313824898;1166.6666666666667;-1102.793235284177
0.2760000000000002;-361408780.0;-342630615.0;-468850.0;-2844.1102889027184;-2843.1128830504117;-46.3055310130776;35.619729288441704;7000.0;-6964.380270711558
0.2800000000000002;-372785025.0;-353776245.0;-700012.0;-2844.0611674000243;-2789.526934348907;-121.87199184009978;12.280375673526578;4000.0;-3987.7196243264734
0.2840000000000002;-384161282.0;-365097656.0;-754969.0;-2844.06411779382;-2818.88918801324;-97.67948381858741;-0.7375984489499388;2083.3333333333335;-2084.0709317822834
0.2880000000000002;-395537620.0;-376534424.0;-694452.0;-2844.08432887973;-2862.165059927268;-48.56495707909971;-5.052771477494389;83.33333333333333;-88.38610481082772
0.2920000000000002;-406914030.0;-387993164.0;-612000.0;-2844.1023305711137;-2875.5737354597686;-27.25037842634947;-4.500422845922003;-3833.3333333333335;3828.8329104874115
0.2960000000000002;-418290477.0;-399556274.0;-425257.0;-2844.111836550585;-2875.712674619559;-9.203345225191242;-2.376494867803558;-6750.0;6747.623505132196
0.3000000000000002;-429666934.0;-411102905.0;-255050.0;-2844.1139692398615;-2882.610384162167;14.019590097390846;-0.5331723191375204;-3750.0;3749.4668276808625
0.3040000000000002;-441043383.0;-422490234.0;-244172.0;-2844.112209505978;-2854.8198233440853;-12.733315085375125;0.439933470829601;83.33333333333333;-82.89339986250373
0.3080000000000002;-452419822.0;-433822632.0;-288227.0;-2844.109541259783;-2823.422098833046;-48.36095220359766;0.6670615488246767;3333.3333333333335;-3332.666271784509
0.3120000000000002;-463796253.0;-445149536.0;-337768.0;-2844.1075464998894;-2827.94129727057;-48.595592628421855;0.4986899733694372;4750.0;-4749.501310026631
0.3160000000000002;-475172680.0;-456613770.0;-249970.0;-2844.106610829572;-2881.0849432900122;12.97905728710657;0.23391757929402957;2000.0;-1999.766082420706
0.32000000000000023;-486549106.0;-468067017.0;-173153.0;-2844.1064818661457;-2862.964245994011;2.2343707847439873;0.03224085662623111;-2333.3333333333335;2333.3655741899597
0.32400000000000023;-497925534.0;-479624634.0;8038.0;-2844.1067459751243;-2879.8091871340403;36.47426995401156;-0.06602724465665233;-4333.333333333333;4333.267306088676
0.32800000000000024;-509301962.0;-491297607.0;304584.0;-2844.1070841762576;-2924.390813306195;109.5242899693244;-0.08455028330445202;-4750.0;4749.915449716696
0.33200000000000024;-520678392.0;-502619019.0;249568.0;-2844.107338851757;-2842.457522950077;22.309172431008847;-0.06366887487274653;-166.66666666666666;166.6029977917939
0.33600000000000024;-532054823.0;-513830566.0;84686.0;-2844.1074781652733;-2800.124117040468;-35.853210128996125;-0.03482837905721681;4833.333333333333;-4833.36816171239
0.34000000000000025;-543431254.0;-525179443.0;57133.0;-2844.107533076309;-2837.5048718784683;-1.1177527166914842;-0.013727758982895466;6916.666666666667;-6916.68039442565
0.34400000000000025;-554807684.0;-536215210.0;-283531.0;-2844.107547740976;-2762.958112779996;-108.36836234035582;-0.0036661666626969236;6166.666666666667;-6166.67033283333
0.34800000000000025;-566184115.0;-547371826.0;-503346.0;-2844.1075545048093;-2795.311444421806;-97.1173101470622;-0.001690958356448391;4416.666666666667;-4416.668357625023
0.35200000000000026;-577560546.0;-559028320.0;-223282.0;-2844.1075684524785;-2902.854292274359;37.31166993755687;-0.003486917307782278;-3500.0;3499.996513082692
0.35600000000000026;-588936977.0;-570476074.0;-151959.0;-2844.1075919132004;-2866.2329179550266;7.537293959821909;-0.005865180469299958;-7083.333333333333;7083.327468152864
0.36000000000000026;-600313408.0;-581819458.0;-185006.0;-2844.1076212089897;-2837.8714664478566;-23.996687224697325;-0.00732394732949615;-6916.666666666667;6916.6593427193375
0.36400000000000027;-611689839.0;-593470459.0;89564.0;-2844.10765168484;-2893.4201127830443;57.91065339199304;-0.0076189626270206645;-1916.6666666666667;1916.6590477040397
0.36800000000000027;-623066270.0;-604780884.0;23558.0;-2844.107680103185;-2817.5185447242866;-24.327520396246655;-0.0071045861886887;1416.6666666666667;-1416.6737712528554
0.3720000000000003;-634442702.0;-615855103.0;-278654.0;-2844.1077050497233;-2784.320702762519;-86.53774401118835;-0.006236634590095491;5416.666666666667;-5416.672903301257
0.3760000000000003;-645819133.0;-627319336.0;-190853.0;-2844.1077263891502;-2848.2644119825777;-14.165165845019146;-0.005334856723493431;4416.666666666667;-4416.6720015233905
0.3800000000000003;-657195564.0;-638701172.0;-185448.0;-2844.107744549933;-2843.2094379121645;-18.701283452126063;-0.004540195732261054;1500.0;-1500.0045401957323
0.3840000000000003;-668571996.0;-650083008.0;-180043.0;-2844.1077600191466;-2864.7712730694184;3.379411604848883;-0.003867303348670248;-4250.0;4249.996132696651
0.3880000000000003;-679948428.0;-661723022.0;83539.0;-2844.107773116398;-2901.2067130992373;65.11870652240759;-0.0032743129168011365;-5416.666666666667;5416.66339235375
0.3920000000000003;-691324859.0;-673159790.0;143875.0;-2844.107783969267;-2842.1933800346733;11.897614913307734;-0.0027132172135679866;-3083.3333333333335;3083.33062011612
0.3960000000000003;-702701291.0;-684382324.0;-10022.0;-2844.1077925777536;-2827.265420079968;-17.80446926267905;-0.0021521216240216745;1916.6666666666667;-1916.6688187882908
0.4000000000000003;-714077723.0;-695698242.0;-70536.0;-2844.107798889218;-2817.3718600453403;-33.50738327345789;-0.001577866100888059;4750.0;-4750.001577866101
0.4040000000000003;-725454155.0;-706981201.0;-164009.0;-2844.1078028492293;-2804.7355438011523;-55.11711522855512;-0.0009900028317133547;5583.333333333333;-5583.334323336165
0.4080000000000003;-736830586.0;-718154297.0;-367345.0;-2844.1078044229575;-2812.127889072134;-67.24503135017949;-0.00039343206026387634;1750.0;-1750.0003934320603
0.4120000000000003;-748207018.0;-729530640.0;-367433.0;-2844.107803595452;-2843.638602647938;-35.742768802050705;0.00020687639334937558;416.6666666666667;-416.66645979027334
0.4160000000000003;-759583450.0;-741016846.0;-257659.0;-2844.1078003648904;-2861.7661828175324;-7.076885268107162;0.000807640390121378;-3083.3333333333335;3083.3341409737236
0.4200000000000003;-770959882.0;-752503052.0;-147885.0;-2844.107794734225;-2880.183455844733;21.87869352531061;0.0014076663319428917;-5916.666666666667;5916.668074332999
0.4240000000000003;-782336313.0;-763917847.0;-109522.0;-2844.1077867061267;-2851.7124829856007;-2.9094271657472746;0.0020070245909664663;-3666.6666666666665;3666.6686736912575
0.4280000000000003;-793712745.0;-775387573.0;-16227.0;-2844.1077762815057;-2852.907831646926;7.2422480627383266;0.0026061552489409223;-83.33333333333333;83.33593948858227
0.43200000000000033;-805089176.0;-786791382.0;11150.0;-2844.107763459074;-2843.908770000263;0.8713873802907983;0.0032056079817266436;500.0;-499.9967943920183
0.43600000000000033;-816465608.0;-797991943.0;-164720.0;-2844.1077482362243;-2803.752988129674;-56.16790312900912;0.0038057123674661852;4083.3333333333335;-4083.329527620966
0.44000000000000034;-827842039.0;-809335327.0;-197768.0;-2844.107730610634;-2832.059795638726;-31.033689859853894;0.004406397579259647;3750.0;-3749.9955936024207
0.44400000000000034;-839218471.0;-820870972.0;-38554.0;-2844.1077105794434;-2877.918131367035;30.10920602988608;0.0050077976538887015;-83.33333333333333;83.33834113098722
0.44800000000000034;-850594902.0;-832324219.0;38261.0;-2844.107688140486;-2864.102296988613;23.667630216767975;0.005609739332612662;-4416.666666666667;4416.672276406
0.45200000000000035;-861971333.0;-843793945.0;131556.0;-2844.107663292003;-2870.4854285078227;39.007102707704234;0.00621212075202493;-3666.6666666666665;3666.6728787874185
0.45600000000000035;-873347764.0;-855373535.0;334715.0;-2844.107636032298;-2876.1476265888823;64.17258816895537;0.0068149262233418995;-2833.3333333333335;2833.340148259557
0.46000000000000035;-884724195.0;-866694946.0;279695.0;-2844.107606359644;-2838.5132783377717;21.256345708222398;0.007418163590955373;2000.0;-1999.992581836409
0.46400000000000036;-896100626.0;-877840576.0;48894.0;-2844.1075742728476;-2796.929355221481;-42.48444520579369;0.008021699045457353;4583.333333333333;-4583.325311634288
0.46800000000000036;-907477057.0;-889222412.0;54299.0;-2844.1075397706522;-2823.562465109484;-15.332424702116896;0.008625548844065634;5333.333333333333;-5333.324707784489
0.47200000000000036;-918853487.0;-900401001.0;-143543.0;-2844.1075028515183;-2796.2821233180584;-61.60556546321277;0.009229783472619602;3333.3333333333335;-3333.324103549861
0.47600000000000037;-930229918.0;-911683960.0;-237015.0;-2844.1074635144737;-2841.1237743597712;-25.7371909751746;0.009834261163632618;916.6666666666666;-916.656832405503
0.48000000000000037;-941606348.0;-923269043.0;-28362.0;-2844.107421758292;-2878.291933878766;31.461694407442792;0.01043904546804697;-4000.0;4000.010439045468
0.4840000000000004;-952982778.0;-934749756.0;75920.0;-2844.1073775823766;-2856.035356296643;19.21622910735414;0.011043978815905575;-6250.0;6250.011043978816
0.4880000000000004;-964359208.0;-946104126.0;53860.0;-2844.1073309856606;-2862.970202212683;24.03335772478613;0.011649178986772313;-3083.3333333333335;3083.3449825123203
