Zeit[sec];Sollposition[°];Istposition[°];Positionsschleppfehler[°];Sollgeschwindigkeit[°/s];Istgeschwindigkeit[°/s];Geschwindigkeitsdifferenz[°/s];Sollbeschleunigung[°/s*s];Istbeschleunigung[°/s*s];Beschleunigungsdifferenz[°/s*s]
0.0;-9979199999.0;-9979200003.0;4.0;0.0;0.00023999999999999998;0.0;0.0;0.0;0.0
0.004;-9979199999.0;-9979200003.0;4.0;0.0;0.00023999999999999998;0.0;0.0;0.0;0.0
0.008;-9979199999.0;-9979200003.0;4.0;0.0;0.00023999999999999998;0.0;0.0;0.0;0.0
0.012;-9979199999.0;-9979200003.0;4.0;0.0;0.00023999999999999998;0.0;0.0;0.0;0.0
0.016;-9979199999.0;-9979200003.0;4.0;0.0;0.00023999999999999998;0.0;0.0;0.0;0.0
0.02;-9979199999.0;-9979200003.0;4.0;0.0;0.00023999999999999998;0.0;0.0;0.0;0.0
0.024;-9979199999.0;-9979200003.0;4.0;0.0;0.00023999999999999998;0.0;0.0;0.0;0.0
0.028;-9979199999.0;-9979200003.0;4.0;0.0;0.00023999999999999998;0.0;0.0;0.0;0.0
0.032;-9979199999.0;-9979200003.0;4.0;0.0;0.00023999999999999998;0.0;0.0;0.0;0.0
0.036000000000000004;-9979199999.0;-9979200003.0;4.0;0.0;0.00023999999999999998;0.0;0.0;0.0;0.0
0.04000000000000001;-9979199999.0;-9979200003.0;4.0;0.0;0.00023999999999999998;0.0;0.0;0.0;0.0
0.04400000000000001;-9979199999.0;-9979200003.0;4.0;0.0;0.00023999999999999998;0.0;0.0;0.0;0.0
0.048000000000000015;-9979199999.0;-9979200003.0;4.0;0.0;0.00023999999999999998;0.0;0.0;0.0;0.0
0.05200000000000002;-9979199999.0;-9979200003.0;4.0;8.656197209923802e-10;0.00023999999999999998;0.0;2.1640493024809505e-07;0.0;2.1640493024809505e-07
0.05600000000000002;-9979199999.0;-9979200003.0;4.0;0.0;0.00023999999999999998;8.656197210030973e-10;-2.1640493024809505e-07;0.0;-2.1640493024809505e-07
0.060000000000000026;-9979199999.0;-9979200003.0;4.0;0.0;0.00024000086561972098;-8.656197210030973e-10;0.0;0.0;0.0
0.06400000000000003;-9979289478.0;-9979200003.0;4.0;-22.369513120497306;0.00023999999999999998;0.0;-5592.378280124327;0.0;-5592.378280124327
0.06800000000000003;-9979342926.0;-9979200003.0;-89475.0;-13.361994510730012;0.00023999999999999998;-27.73825312049731;2251.8796524418235;0.0;2251.8796524418235
0.07200000000000004;-9979400469.0;-9979310955.0;-31971.0;-14.385973307841939;-27.738013120497307;12.457758609767295;-255.99469927798157;0.0;-255.99469927798157
0.07600000000000004;-9979459402.0;-9979372076.0;-28393.0;-14.733039231689663;-15.280254510730012;-0.8092987971119268;-86.76648096193107;-83.33333333333333;-3.433147628597741
0.08000000000000004;-9979520035.0;-9979436434.0;-22968.0;-15.158465439642356;-16.08955330784194;-0.021565923847724378;-106.3565519881733;-83.33333333333333;-23.023218654839958
0.08400000000000005;-9979581063.0;-9979500878.0;-19157.0;-15.25691938549304;-16.111119231689663;-0.19676620795269173;-24.61348646267103;-166.66666666666666;142.05318020399562
0.08800000000000005;-9979638064.0;-9979566109.0;-14954.0;-14.250188851632691;-16.307885439642355;0.15372605414931684;251.68263346508724;-83.33333333333333;335.01596679842055
0.09200000000000005;-9979687209.0;-9979630725.0;-7339.0;-12.286248386588294;-16.15415938549304;1.4636305338603464;490.9851162610992;-166.66666666666666;657.6517829277659
0.09600000000000006;-9979726747.0;-9979689487.0;2278.0;-9.88441970126511;-14.690528851632692;2.5409604650443978;600.4571713307962;-83.33333333333333;683.7905046641296
0.10000000000000006;-9979755105.0;-9979738085.0;11338.0;-7.08962014346252;-12.149568386588294;2.9454286853231846;698.6998894506473;-166.66666666666666;865.366556117314
0.10400000000000006;-9979772141.0;-9979774901.0;19796.0;-4.258880427926429;-9.20413970126511;3.3022795578025894;707.6849288840228;-83.33333333333333;791.0182622173561
0.10800000000000007;-9979780353.0;-9979798508.0;26367.0;-2.0530452594184507;-5.90186014346252;3.224999715536091;551.4587921269946;-83.33333333333333;634.7921254603278
0.11200000000000007;-9979783359.0;-9979809215.0;28862.0;-0.7514606048461878;-2.676860427926429;2.355535168507978;325.39616364306573;0.0;325.39616364306573
0.11600000000000008;-9979784328.0;-9979810500.0;27141.0;-0.2422293061698702;-0.3213252594184508;1.1983246545722628;127.30782466907941;0.0;127.30782466907941
0.12000000000000008;-9979783223.0;-9979806993.0;22665.0;0.27623620988192293;0.876999395153812;0.24067129867631776;129.61637901294827;0.0;129.61637901294827
0.12400000000000008;-9979775528.0;-9979802523.0;19300.0;1.9236459368588605;1.1176706938301297;0.31656551605179306;411.8524317442344;0.0;411.8524317442344
0.12800000000000009;-9979757000.0;-9979796787.0;21259.0;4.632042078126505;1.4342362098819228;1.7649497269769379;677.099035316911;0.0;677.099035316911
0.1320000000000001;-9979726698.0;-9979783991.0;26991.0;7.575388805751425;3.1991859368588607;3.052316141267644;735.8366819062301;0.0;735.8366819062301
0.1360000000000001;-9979685254.0;-9979758985.0;32287.0;10.360997421970866;6.251502078126505;3.26110672762492;696.4021540548604;0.0;696.4021540548604
0.1400000000000001;-9979634401.0;-9979720935.0;35681.0;12.713344675929909;9.512608805751425;2.9892486162194416;588.0868134897605;0.0;588.0868134897605
0.1440000000000001;-9979577076.0;-9979670928.0;36527.0;14.331339781476125;12.501857421970866;2.4031072539590426;404.49877638655397;83.33333333333333;321.16544305322066
0.1480000000000001;-9979516392.0;-9979611309.0;34233.0;15.170952922828736;14.904964675929909;1.4803551055462147;209.90328533815284;83.33333333333333;126.5699520048195
0.1520000000000001;-9979454605.0;-9979545768.0;29376.0;15.446796926762953;16.385319781476124;0.5481931413526127;68.9610009835544;166.66666666666666;-97.70566568311226
0.1560000000000001;-9979394885.0;-9979478034.0;23429.0;14.929891213878866;16.933512922828736;-0.08097599606578498;-129.22642822102182;83.33333333333333;-212.55976155435513
0.16000000000000011;-9979342919.0;-9979410624.0;15739.0;12.991556588958781;16.85253692676295;-0.9783057128840849;-484.5836562300212;166.66666666666666;-651.2503228966879
0.16400000000000012;-9979302909.0;-9979347128.0;4209.0;10.002340232006578;15.874231213878867;-2.6301346249200854;-747.3040892380509;83.33333333333333;-830.6374225713843
0.16800000000000012;-9979275247.0;-9979294152.0;-8757.0;6.915562882310072;13.244096588958781;-3.767176356952204;-771.6943374241265;166.66666666666666;-938.3610040907931
0.17200000000000013;-9979258730.0;-9979256245.0;-19002.0;4.129179619251295;9.476920232006577;-3.701477349696505;-696.5958157646941;83.33333333333333;-779.9291490980274
0.17600000000000013;-9979199999.0;-9979233144.0;-25586.0;14.682722381788048;5.775442882310072;-3.1814232630587767;2638.3856906341884;83.33333333333333;2555.052357300855
0.18000000000000013;-9979199999.0;-9979222768.0;22769.0;0.0;2.5940196192512954;13.454842762536753;-3670.680595447012;0.0;-3670.680595447012
0.18400000000000014;-9979199999.0;-9979158573.0;-41426.0;0.0;16.048862381788048;-18.534422381788048;0.0;0.0;0.0
0.18800000000000014;-9979252778.0;-9979168515.0;-31484.0;-13.194583137029712;-2.48556;0.5965200000000002;-3298.6457842574277;0.0;-3298.6457842574277
0.19200000000000014;-9979254306.0;-9979176071.0;-76707.0;-0.3819959876204804;-1.8890399999999998;-15.907963137029713;3203.146787352308;0.0;3203.146787352308
0.19600000000000015;-9979255150.0;-9979247259.0;-7047.0;-0.21111968648656135;-17.797003137029712;16.992187149409233;42.71907528347977;0.0;42.71907528347977
0.20000000000000015;-9979255454.0;-9979250478.0;-4672.0;-0.07593504501620231;-0.8048159876204803;0.313376301133919;33.796160367589756;0.0;33.796160367589756
0.20400000000000015;-9979255474.0;-9979252443.0;-3011.0;-0.0050910812185564;-0.49143968648656133;0.23484464147035905;17.710990949411478;0.0;17.710990949411478
0.20800000000000016;-9979255417.0;-9979253469.0;-2005.0;0.014270402434026226;-0.2565950450162023;0.1312039637976459;4.840370913145657;83.33333333333333;-78.49296242018767
0.21200000000000016;-9979255391.0;-9979253970.0;-1447.0;0.006666417355072107;-0.12539108121855638;0.05284148365258262;-1.9009962697385299;83.33333333333333;-85.23432960307186
0.21600000000000016;-9979255423.0;-9979254260.0;-1131.0;-0.008069104484076255;-0.07254959756597376;0.011356014921045876;-3.6838804597870904;166.66666666666666;-170.35054712645376
0.22000000000000017;-9979255501.0;-9979254504.0;-919.0;-0.019521020541100498;-0.061193582644927885;-0.002015521839148368;-2.8629790142560605;83.33333333333333;-86.19631234758938
0.22400000000000017;-9979255601.0;-9979254756.0;-745.0;-0.02497313356726868;-0.06320910448407625;-0.0010119160570242342;-1.363028256542046;166.66666666666666;-168.0296949232087
0.22800000000000017;-9979255704.0;-9979255012.0;-589.0;-0.025768481990770992;-0.06422102054110049;0.003907886973831806;-0.19883710587557774;83.33333333333333;-83.53217043920891
0.23200000000000018;-9979255801.0;-9979255253.0;-451.0;-0.02430502662611374;-0.06031313356726868;0.007484651576497692;0.3658638411643128;166.66666666666666;-166.30080282550233
0.23600000000000018;-9979255891.0;-9979255464.0;-337.0;-0.022443644433016746;-0.05282848199077099;0.00830345536465725;0.46534554827424873;83.33333333333333;-82.86798778505909
0.24000000000000019;-9979255975.0;-9979255642.0;-249.0;-0.021092749928778735;-0.04452502662611374;0.007141382193096998;0.3377236260595027;83.33333333333333;-82.99560970727383
0.2440000000000002;-9979256057.0;-9979255791.0;-184.0;-0.020419966044271272;-0.03738364443301674;0.0052508945042380045;0.16819597112686588;0.0;0.16819597112686588
0.2480000000000002;-9979256138.0;-9979255919.0;-138.0;-0.020228867506566384;-0.03213274992877874;0.0034327838845074655;0.047774634426222054;0.0;0.047774634426222054
0.25200000000000017;-9979256219.0;-9979256033.0;-105.0;-0.020253121016988968;-0.02869996604427127;0.0021710985377048873;-0.006063377605646132;0.0;-0.006063377605646132
0.25600000000000017;-9979256300.0;-9979256139.0;-80.0;-0.020302015258389313;-0.026528867506566384;0.0014757464895774168;-0.012223560350086218;0.0;-0.012223560350086218
0.2600000000000002;-9979256381.0;-9979256239.0;-61.0;-0.020289401159275106;-0.025053121016988967;0.0010911057585996538;0.0031535247785518736;0.0;0.0031535247785518736
0.2640000000000002;-9979256462.0;-9979256334.0;-47.0;-0.02020455340276334;-0.023962015258389313;0.000852614099114208;0.021211939127941358;-83.33333333333333;83.35454527246127
0.2680000000000002;-9979256542.0;-9979256426.0;-36.0;-0.020071105715556366;-0.023109401159275105;0.0007448477565117663;0.033361921801743424;-83.33333333333333;83.36669525513507
0.2720000000000002;-9979256622.0;-9979256515.0;-27.0;-0.01991722998001378;-0.02236455340276334;0.0006734476872069725;0.0384689338856466;-83.33333333333333;83.37180226721898
0.2760000000000002;-9979256701.0;-9979256601.0;-21.0;-0.01976192885733063;-0.021691105715556366;0.0005138757355425856;0.0388252806707871;-83.33333333333333;83.37215861400412
0.2800000000000002;-9979256780.0;-9979256685.0;-16.0;-0.0196131311356113;-0.02117722998001378;0.00045530112268315007;0.03719943042983318;-83.33333333333333;83.37053276376317
0.2840000000000002;-9979256857.0;-9979256767.0;-13.0;-0.019471248561303067;-0.02072192885733063;0.00032879772171933233;0.035470643577058085;-166.66666666666666;166.70213731024373
0.2880000000000002;-9979256935.0;-9979256848.0;-9.0;-0.019333527886613362;-0.0203931311356113;0.00038188257430823297;0.03443016867242608;-83.33333333333333;83.36776350200576
0.2920000000000002;-9979257012.0;-9979256928.0;-7.0;-0.019197028024270167;-0.020011248561303065;0.0002577206746897029;0.03412496558579878;-166.66666666666666;166.70079163225245
0.2960000000000002;-9979257088.0;-9979257007.0;-5.0;-0.019059880101295855;-0.019753527886613362;0.0002564998623431937;0.034286980743578055;-83.33333333333333;83.3676203140769
0.3000000000000002;-9979257164.0;-9979257084.0;-4.0;-0.018921374309519214;-0.01949702802427017;0.00019714792297431324;0.03462644794416034;-83.33333333333333;83.36795978127749
0.3040000000000002;-9979257239.0;-9979257161.0;-3.0;-0.018781542388330012;-0.019299880101295856;0.00019850579177664238;0.03495798029730032;0.0;0.03495798029730032
0.3080000000000002;-9979257313.0;-9979257237.0;-2.0;-0.0186406997118466;-0.019101374309519213;0.00019983192118920232;0.03521066912085327;0.0;0.03521066912085327
0.3120000000000002;-9979257387.0;-9979257312.0;-1.0;-0.01849915501776946;-0.01890154238833001;0.00020084267648341064;0.035386173519284976;0.0;0.035386173519284976
0.3160000000000002;-9979257461.0;-9979257386.0;-1.0;-0.018357091817479444;-0.0187006997118466;0.0001415446940771399;0.03551580007250376;0.0;0.03551580007250376
0.32000000000000023;-9979257533.0;-9979257460.0;-1.0;-0.018214573878296007;-0.01855915501776946;0.00014206320029001504;0.0356294847958594;0.0;0.0356294847958594
0.32400000000000023;-9979257606.0;-9979257533.0;0.0;-0.018071591966942108;-0.018417091817479445;0.00020251793918343863;0.03574547783847474;0.0;0.03574547783847474
0.32800000000000024;-9979257677.0;-9979257605.0;-1.0;-0.017928112324248645;-0.018214573878296007;8.298191135389793e-05;0.035869910673365715;0.0;0.035869910673365715
0.33200000000000024;-9979257749.0;-9979257677.0;0.0;-0.0177841055191451;-0.01813159196694211;0.00020347964269346389;0.036001701275886235;0.0;0.036001701275886235
0.33600000000000024;-9979257819.0;-9979257748.0;-1.0;-0.01763955481631686;-0.017928112324248645;8.400680510354391e-05;0.03613767570706007;0.0;0.03613767570706007
0.34000000000000025;-9979257889.0;-9979257819.0;0.0;-0.01749445646474514;-0.0178441055191451;0.0002045507028282413;0.03627458789292985;0.0;0.03627458789292985
0.34400000000000025;-9979257959.0;-9979257889.0;0.0;-0.01734881392690882;-0.01763955481631686;0.0001450983515717194;0.03641063445907963;0.0;0.03641063445907963
0.34800000000000025;-9979258027.0;-9979257958.0;-1.0;-0.01720263181944642;-0.01749445646474514;8.56425378363175e-05;0.03654552686560043;0.0;0.03654552686560043
0.35200000000000026;-9979258096.0;-9979258027.0;0.0;-0.01705591533607626;-0.017408813926908823;0.00020618210746240276;0.036679120842540366;0.0;0.036679120842540366
0.35600000000000026;-9979258163.0;-9979258095.0;-1.0;-0.0169086670736575;-0.01720263181944642;8.671648337016044e-05;0.036812065604689866;0.0;0.036812065604689866
0.36000000000000026;-9979258230.0;-9979258163.0;0.0;-0.016760890206129125;-0.01711591533607626;0.0002072482624187605;0.036944216882093574;0.0;0.036944216882093574
0.36400000000000027;-9979258297.0;-9979258230.0;0.0;-0.01661258559911085;-0.0169086670736575;0.0001477768675283743;0.03707615175456858;0.0;0.03707615175456858
0.36800000000000027;-9979258363.0;-9979258297.0;0.0;-0.016463753541142583;-0.016760890206129125;0.00014830460701827433;0.03720801449206678;0.0;0.03720801449206678
0.3720000000000003;-9979258428.0;-9979258363.0;0.0;-0.016314394609304138;-0.01661258559911085;0.00014883205796826712;0.037339732959611356;0.0;0.037339732959611356
0.3760000000000003;-9979258492.0;-9979258428.0;0.0;-0.01616451255461431;-0.016463753541142583;0.00014935893183844542;0.037470513672457385;0.0;0.037470513672457385
0.3800000000000003;-9979258557.0;-9979258493.0;1.0;-0.01601410737707309;-0.016314394609304138;0.00020988205468983057;0.03760129438530428;0.0;0.03760129438530428
0.3840000000000003;-9979258620.0;-9979258557.0;0.0;-0.015863179942300208;-0.016104512554614307;9.04051775412161e-05;0.037731858693220745;0.0;0.037731858693220745
0.3880000000000003;-9979258683.0;-9979258621.0;1.0;-0.01571173400131445;-0.01601410737707309;0.000210927434772884;0.03786148524643953;0.0;0.03786148524643953
0.3920000000000003;-9979258745.0;-9979258684.0;1.0;-0.015559769265575911;-0.015803179942300207;0.00015144594098575812;0.03799118393463469;0.0;0.03799118393463469
0.3960000000000003;-9979258807.0;-9979258746.0;1.0;-0.01540728804340385;-0.01565173400131445;0.00015196473573853703;0.03812030554301536;0.0;0.03812030554301536
0.4000000000000003;-9979258868.0;-9979258807.0;0.0;-0.015254292066037702;-0.015499769265575912;9.248122217206216e-05;0.038248994341536904;0.0;0.038248994341536904
0.4040000000000003;-9979258928.0;-9979258868.0;0.0;-0.015100782487637097;-0.01540728804340385;0.0001529959773661476;0.038377394600151195;0.0;0.038377394600151195
0.4080000000000003;-9979258988.0;-9979258929.0;1.0;-0.014946761905061204;-0.015254292066037702;0.00021350957840060407;0.038505145643973324;0.0;0.038505145643973324
0.4120000000000003;-9979259047.0;-9979258989.0;1.0;-0.014792230318310017;-0.015040782487637098;0.00015402058257589328;0.03863289668779675;0.0;0.03863289668779675
0.4160000000000003;-9979259106.0;-9979259048.0;1.0;-0.014637190324242698;-0.014886761905061205;0.00015453158675118699;0.038759998516829736;0.0;0.038759998516829736
0.4200000000000003;-9979259164.0;-9979259106.0;0.0;-0.014481644808258321;-0.014732230318310018;9.503999406731967e-05;0.038886378996094186;0.0;0.038886378996094186
0.4240000000000003;-9979259221.0;-9979259164.0;0.0;-0.014325592904737163;-0.014637190324242698;0.00015554551598437674;0.0390129758802895;0.0;0.0390129758802895
0.4280000000000003;-9979259278.0;-9979259221.0;0.0;-0.014169037499078295;-0.014481644808258321;0.000156051903521158;0.03913885141471714;0.0;0.03913885141471714
0.43200000000000033;-9979259334.0;-9979259278.0;0.0;-0.014011981765220696;-0.014325592904737163;0.00015655540565886854;0.039263933464399846;0.0;0.039263933464399846
0.43600000000000033;-9979259389.0;-9979259334.0;0.0;-0.013854424549004731;-0.014169037499078295;0.00015705573385759938;0.0393893040539911;0.0;0.0393893040539911
0.44000000000000034;-9979259444.0;-9979259390.0;1.0;-0.013696369024369387;-0.014011981765220696;0.0002175572162159637;0.03951388115883614;0.0;0.03951388115883614
0.44400000000000034;-9979259498.0;-9979259445.0;1.0;-0.013537817499633908;-0.013794424549004732;0.00015805552463534454;0.03963788118386971;0.0;0.03963788118386971
0.44800000000000034;-9979259551.0;-9979259499.0;1.0;-0.013378770840418025;-0.013636369024369387;0.00015855152473547886;0.03976166480397069;0.0;0.03976166480397069
0.45200000000000035;-9979259604.0;-9979259552.0;1.0;-0.013219231355040988;-0.013477817499633908;0.00015904665921588276;0.039884871344259346;0.0;0.039884871344259346
0.45600000000000035;-9979259657.0;-9979259605.0;1.0;-0.013059199620582615;-0.013318770840418026;0.00015953948537703738;0.04000793361459308;0.0;0.04000793361459308
0.46000000000000035;-9979259708.0;-9979259657.0;0.0;-0.012898678233902066;-0.013159231355040988;0.00010003173445837302;0.04013034667013724;0.0;0.04013034667013724
0.46400000000000036;-9979259759.0;-9979259709.0;1.0;-0.012737669791858508;-0.013059199620582615;0.00022052138668054826;0.04025211051088967;0.0;0.04025211051088967
0.46800000000000036;-9979259809.0;-9979259760.0;1.0;-0.012576174582991843;-0.012838678233902067;0.00016100844204355869;0.04037380221666616;0.0;0.04037380221666616
0.47200000000000036;-9979259859.0;-9979259810.0;1.0;-0.012414194915621329;-0.012677669791858508;0.00016149520886666463;0.040494916842628584;0.0;0.040494916842628584
0.47600000000000037;-9979259908.0;-9979259860.0;1.0;-0.012251733098066226;-0.012516174582991844;0.00016197966737051435;0.04061545438877566;0.0;0.04061545438877566
0.48000000000000037;-9979259956.0;-9979259909.0;1.0;-0.012088790573026061;-0.01235419491562133;0.00016246181755510264;0.040735631260041275;0.0;0.040735631260041275
0.4840000000000004;-9979260004.0;-9979259957.0;1.0;-0.011925368783200375;-0.012191733098066227;0.0001629425250401651;0.04085544745642154;0.0;0.04085544745642154
0.4880000000000004;-9979260051.0;-9979260005.0;1.0;-0.0117614691712887;-0.012028790573026062;0.00016342178982568616;0.040974902977918615;0.0;0.040974902977918615
0.4920000000000004;-9979260098.0;-9979260052.0;1.0;-0.011597095488309828;-0.011865368783200375;0.00016389961191167444;0.041093420744718;0.0;0.041093420744718
0.4960000000000004;-9979260143.0;-9979260098.0;0.0;-0.011432248311343577;-0.011701469171288701;0.00010437368297887273;0.041211794241562905;0.0;0.041211794241562905
0.5000000000000003;-9979260188.0;-9979260144.0;1.0;-0.011266929083089473;-0.011597095488309828;0.00022484717696625092;0.041329807063525924;0.0;0.041329807063525924
0.5040000000000003;-9979260233.0;-9979260189.0;1.0;-0.011101139823326873;-0.011372248311343577;0.0001653192282541037;0.04144731494064996;0.0;0.04144731494064996
