Zeit[sec];Sollposition[°];Istposition[°];Positionsschleppfehler[°];Sollgeschwindigkeit[°/s];Istgeschwindigkeit[°/s];Geschwindigkeitsdifferenz[°/s];Sollbeschleunigung[°/s*s];Istbeschleunigung[°/s*s];Beschleunigungsdifferenz[°/s*s]
0.0;0.0;2.0;-2.0;-0.0;-0.000192;0.0;0.0;0.0;0.0
0.004;0.0;2.0;-2.0;-0.0;-0.000192;0.0;0.0;0.0;0.0
0.008;0.0;2.0;-2.0;-0.0;-0.000192;0.0;0.0;0.0;0.0
0.012;0.0;2.0;-2.0;-0.0;-0.000192;0.0;0.0;0.0;0.0
0.016;0.0;2.0;-2.0;-0.0;-0.000192;0.0;0.0;0.0;0.0
0.02;0.0;2.0;-2.0;-0.0;-0.000192;0.0;0.0;0.0;0.0
0.024;0.0;2.0;-2.0;-0.0;-0.000192;0.0;0.0;0.0;0.0
0.028;0.0;2.0;-2.0;-0.0;-0.000192;0.0;0.0;0.0;0.0
0.032;0.0;2.0;-2.0;-0.0;-0.000192;0.0;0.0;0.0;0.0
0.036000000000000004;0.0;2.0;-2.0;-0.0;-0.000192;0.0;0.0;0.0;0.0
0.04000000000000001;0.0;2.0;-2.0;-0.0;-0.000192;0.0;0.0;0.0;0.0
0.04400000000000001;0.0;2.0;-2.0;-0.0;-0.000192;0.0;0.0;0.0;0.0
0.048000000000000015;0.0;2.0;-2.0;-0.0;-0.000192;0.0;0.0;0.0;0.0
0.05200000000000002;-210.0;2.0;-2.0;-0.052607420098777474;-0.000192;0.0;-13.151855024694369;0.0;-13.151855024694369
0.05600000000000002;-2307.0;2.0;-212.0;-0.5242683395383991;-0.000192;-0.07276742009877749;-117.91522985990541;0.0;-117.91522985990541
0.060000000000000026;-12615.0;-289.0;-2018.0;-2.576885199250529;-0.07295942009877748;-0.6450369194396217;-513.1542149280324;0.0;-513.1542149280324
0.06400000000000003;-175656.0;-3160.0;-9455.0;-40.76041341275298;-0.7179963395383991;-2.76656885971213;-9545.882053375613;0.0;-9545.882053375613
0.06800000000000003;-418853.0;-17098.0;-158558.0;-60.79912734093464;-3.484565199250529;-52.49741621350245;-5009.678482045414;0.0;-5009.678482045414
0.07200000000000004;-830352.0;-241025.0;-177828.0;-102.87471246007844;-55.98198141275298;-21.888633928181655;-10518.896279785951;-83.33333333333333;-10435.562946452617
0.07600000000000004;-1411737.0;-552507.0;-277845.0;-145.34631156413394;-77.87061534093463;-51.677217119143805;-10617.899776013875;-333.3333333333333;-10284.566442680542
0.08000000000000004;-2161607.0;-1070698.0;-341039.0;-187.4676196186145;-129.54783246007844;-48.538223104055504;-10530.327013620137;-666.6666666666666;-9863.660346953471
0.08400000000000005;-3128122.0;-1783042.0;-378565.0;-241.62871518318846;-178.08605556413394;-45.72380405448055;-13540.273891143492;-1000.0;-12540.273891143492
0.08800000000000005;-4383593.0;-2678281.0;-449841.0;-313.86775534041817;-223.8098596186145;-61.00359156457398;-18059.760039307428;-1333.3333333333333;-16726.426705974092
0.09200000000000005;-5996538.0;-3817534.0;-566059.0;-403.2360715495605;-284.8134511831885;-83.39596815722967;-22342.079052285582;-1750.0;-20592.079052285582
0.09600000000000006;-8020135.0;-5290371.0;-706167.0;-505.89917283654887;-368.20941934041815;-102.81868420914236;-25665.775321747093;-2333.3333333333335;-23332.441988413757
0.10000000000000006;-10496573.0;-7174483.0;-845652.0;-619.1096716541309;-471.0281035495605;-116.05366128698842;-28302.62470439551;-3000.0;-25302.62470439551
0.10400000000000006;-13457903.0;-9522810.0;-973763.0;-740.3322675489709;-587.0817648365489;-125.50915481758204;-30305.64897370999;-3750.0;-26555.64897370999
0.10800000000000007;-16926620.0;-12373173.0;-1084730.0;-867.1794304439275;-712.590919654131;-131.87542789483996;-31711.79072373914;-4583.333333333333;-27128.45739040581
0.11200000000000007;-20919102.0;-15751038.0;-1175582.0;-998.1204519455019;-844.4663475489709;-135.5689548949565;-32735.25537539362;-5583.333333333333;-27151.922042060287
0.11600000000000008;-25447328.0;-19671179.0;-1247923.0;-1132.0562579984507;-980.0353024439274;-137.8857575015744;-33483.9515132372;-6583.333333333333;-26900.618179903868
0.12000000000000008;-30518933.0;-24142863.0;-1304465.0;-1267.901237228465;-1117.9210599455018;-139.36383805294895;-33961.24480750359;-7666.666666666667;-26294.578140836922
0.12400000000000008;-36137672.0;-29172002.0;-1346931.0;-1404.6847975168396;-1257.2848979984508;-139.92171523001434;-34195.89007209362;-8666.666666666666;-25529.223405426954
0.12800000000000009;-42304552.0;-34760828.0;-1376844.0;-1541.7199658137874;-1397.2066132284651;-139.65520828837452;-34258.79207423697;-9833.333333333334;-24425.458740903632
0.1320000000000001;-49019139.0;-40908275.0;-1396277.0;-1678.6465041240801;-1536.8618215168397;-138.9007362969478;-34231.634577573175;-10916.666666666666;-23314.967910906507
0.1360000000000001;-56277964.0;-47611325.0;-1407814.0;-1814.706141446045;-1675.7625578137875;-138.03409031029264;-34014.90933049121;-12000.0;-22014.909330491206
0.1400000000000001;-64070278.0;-54866511.0;-1411453.0;-1948.0783920478189;-1813.79664812408;-136.4089813219648;-33343.06265044347;-13083.333333333334;-20259.729317110137
0.1440000000000001;-72378274.0;-62667333.0;-1402945.0;-2076.998984539029;-1950.205629446045;-132.55548260177375;-32230.148122802573;-14166.666666666666;-18063.48145613591
0.1480000000000001;-81179013.0;-70998377.0;-1379897.0;-2200.18463700254;-2082.7611120478186;-126.70798449121048;-30796.413115877727;-15250.0;-15546.413115877727
0.1520000000000001;-90441813.0;-79836253.0;-1342760.0;-2315.700009393421;-2209.469096539029;-119.62050046351078;-28878.843097720277;-16250.0;-12628.843097720277
0.1560000000000001;-100127196.0;-89152611.0;-1289202.0;-2421.345613578962;-2329.08959700254;-110.3738043908811;-26411.40104638521;-17250.0;-9161.401046385208
0.16000000000000011;-110189642.0;-98910464.0;-1216732.0;-2515.6113320605846;-2439.463401393421;-98.6884841855408;-23566.429620405645;-18166.666666666668;-5399.762953738975
0.16400000000000012;-120579292.0;-109063071.0;-1126571.0;-2597.4123341885133;-2538.151885578962;-85.61026248162261;-20450.250531982194;-19083.333333333332;-1366.91719864886
0.16800000000000012;-131242214.0;-119558119.0;-1021173.0;-2665.7304019026465;-2623.7621480605844;-71.6827941279289;-17079.51692853328;-19833.333333333332;2753.8164048000517
0.17200000000000013;-142123598.0;-130339898.0;-902316.0;-2720.345903926404;-2695.4449421885133;-56.907795714133044;-13653.875505939368;-20500.0;6846.124494060632
0.17600000000000013;-153173687.0;-141349308.0;-774290.0;-2762.522035566746;-2752.3527379026464;-42.325006023757396;-10544.032910085549;-21000.0;10455.967089914451
0.18000000000000013;-164348890.0;-152528018.0;-645669.0;-2793.8006981703384;-2794.6777439264038;-29.828515640342175;-7819.6656508980595;-21416.666666666668;13597.001015768608
0.18400000000000014;-175610664.0;-163826043.0;-522847.0;-2815.44337542787;-2824.506259566746;-19.487750603592303;-5410.669314382858;-21750.0;16339.330685617142
0.18800000000000014;-186928475.0;-175202019.0;-408645.0;-2829.4524934998367;-2843.9940101703382;-10.679285257531774;-3502.279517991724;-22000.0;18497.720482008277
0.19200000000000014;-198280888.0;-186620712.0;-307763.0;-2838.1032359667365;-2854.67329542787;-4.324446071966577;-2162.685616724957;-22166.666666666668;20003.98104994171
0.19600000000000015;-209652696.0;-198056702.0;-224186.0;-2842.951774928134;-2858.9977414998366;-0.6273504668997703;-1212.13474034937;-22333.333333333332;21121.19859298396
0.20000000000000015;-221033106.0;-209495202.0;-157494.0;-2845.1024805178126;-2859.6250919667364;1.5538930386023821;-537.6763974196592;-22166.666666666668;21628.99026924701
0.20400000000000015;-232415423.0;-220927486.0;-105620.0;-2845.579096290132;-2858.071198928134;2.829198410321169;-119.15394307982297;-22000.0;21880.846056920178
0.20800000000000016;-243796451.0;-232348454.0;-66969.0;-2845.2569039385107;-2855.242000517813;3.2338802276808565;80.54808790529933;-21583.333333333332;21663.88142123863
0.21200000000000016;-255175393.0;-243756486.0;-39965.0;-2844.7353246904277;-2852.008120290132;2.9145763516212355;130.39481202076786;-21333.333333333332;21463.7281453541
0.21600000000000016;-266552666.0;-255152860.0;-22533.0;-2844.318143760583;-2849.0935439385107;2.1950512480830184;104.29523246114059;-20916.666666666668;21020.961899127808
0.22000000000000017;-277929020.0;-266540453.0;-12213.0;-2844.088231031024;-2846.8984926904277;1.4079009298448;57.478182389786525;-20500.0;20557.478182389787
0.22400000000000017;-289305065.0;-277922415.0;-6605.0;-2844.0110957519096;-2845.490591760583;0.7682807295591374;19.28381977859317;-19916.666666666668;19935.95048644526
0.22800000000000017;-300681138.0;-289301304.0;-3761.0;-2844.0180644736415;-2844.7223110310238;0.3501592791139956;-1.7421804329842416;-19333.333333333332;19331.59115290035
0.23200000000000018;-312057346.0;-300678792.0;-2346.0;-2844.052078182378;-2844.3721517519098;0.12887127826843425;-8.503427184109569;-18500.0;18491.49657281589
0.23600000000000018;-323433674.0;-312055765.0;-1581.0;-2844.0816970630344;-2844.2432804736413;0.03942629126322572;-7.404720164117862;-17666.666666666668;17659.26194650255
0.24000000000000019;-334810063.0;-323432580.0;-1094.0;-2844.0971233218856;-2844.203854182378;0.01713311934372541;-3.856564712805266;-16583.333333333332;16579.476768620527
0.2440000000000002;-346186465.0;-334809326.0;-737.0;-2844.1005182978583;-2844.1867210630344;0.01884574114865245;-0.8487439931741392;-15666.666666666666;15665.817922673492
0.2480000000000002;-357562857.0;-346185997.0;-468.0;-2844.0977003975418;-2844.1678753218857;0.02242902402758773;0.7044750791465049;-14500.0;14500.704475079147
0.25200000000000017;-368939231.0;-357562578.0;-279.0;-2844.0935380842307;-2844.145446297858;0.020961900316251558;1.0405783277747105;-13500.0;13501.040578327775
0.25600000000000017;-380315594.0;-368939075.0;-156.0;-2844.090553457422;-2844.124484397542;0.015970313311299833;0.7461567021209703;-12333.333333333334;12334.079490035456
0.2600000000000002;-391691952.0;-380315509.0;-85.0;-2844.0893165686757;-2844.1085140842306;0.009800626808555535;0.3092221866154432;-11333.333333333334;11333.64255551995
0.2640000000000002;-403068310.0;-391691903.0;-49.0;-2844.089381815259;-2844.098713457422;0.004692888746376411;-0.016311645822497667;-10250.0;10249.983688354178
0.2680000000000002;-414444671.0;-403068279.0;-31.0;-2844.0900660160623;-2844.0940205686757;0.0016627534164399549;-0.17105020083363343;-9166.666666666666;9166.495616465832
0.2720000000000002;-425821035.0;-414444648.0;-23.0;-2844.0908553070576;-2844.092357815259;8.379919700018945e-05;-0.19732274881789635;-8083.333333333333;8083.136010584515
0.2760000000000002;-437197401.0;-425821017.0;-18.0;-2844.091503092212;-2844.092274016062;-0.0003092909955739742;-0.16194628858556825;-7000.0;6999.838053711414
0.2800000000000002;-448573770.0;-437197387.0;-14.0;-2844.091965529148;-2844.092583307058;-0.00026378515394753776;-0.1156092340579562;-5916.666666666667;5916.551057432609
0.2840000000000002;-459950140.0;-448573758.0;-12.0;-2844.092296907872;-2844.0928470922117;-0.00027043693626183085;-0.08284468094643671;-4916.666666666667;4916.5838219857205
0.2880000000000002;-471326510.0;-459950130.0;-10.0;-2844.0925696469776;-2844.093117529148;-0.0001393787238157529;-0.0681847764099075;-4000.0;3999.93181522359
0.2920000000000002;-482702882.0;-471326503.0;-7.0;-2844.092835257195;-2844.093256907872;1.5260894087987253e-05;-0.06640255435286235;-3250.0;3249.933597445647
0.2960000000000002;-494079255.0;-482702875.0;-7.0;-2844.0931168718967;-2844.0932416469777;-0.0002656102174114494;-0.0704036754086701;-2500.0;2499.9295963245913
0.3000000000000002;-505455629.0;-494079249.0;-6.0;-2844.0934172998027;-2844.093507257195;-0.00018561470142230974;-0.07510697651014198;-1750.0;1749.9248930234899
0.3040000000000002;-516832005.0;-505455623.0;-6.0;-2844.093730147019;-2844.0936928718966;-0.0003004279060405679;-0.07821180406608619;-1166.6666666666667;1166.5884548626007
0.3080000000000002;-528208382.0;-516831998.0;-7.0;-2844.094047836592;-2844.0939932998026;-0.0004088472164767154;-0.07942239324165712;-750.0;749.9205776067583
0.3120000000000002;-539584760.0;-528208375.0;-7.0;-2844.0943652687292;-2844.094402147019;-0.0003176895729666285;-0.07935803432701505;-416.6666666666667;416.58730863233967
0.3160000000000002;-550961139.0;-539584753.0;-7.0;-2844.094680315698;-2844.094719836592;-0.0003174321373080602;-0.07876174220200483;-166.66666666666666;166.58790492446465
0.32000000000000023;-562337519.0;-550961133.0;-6.0;-2844.0949928605655;-2844.0950372687294;-0.00021904696859564865;-0.07813621687091654;0.0;-0.07813621687091654
0.32400000000000023;-573713901.0;-562337514.0;-5.0;-2844.095303629799;-2844.095256315698;-0.00021654486772604287;-0.07769230842313846;83.33333333333333;-83.41102564175647
0.32800000000000024;-585090284.0;-573713895.0;-6.0;-2844.0956133981076;-2844.0954728605657;-0.0004067692334501771;-0.07744207709947659;83.33333333333333;-83.4107754104328
0.33200000000000024;-596466668.0;-585090278.0;-6.0;-2844.095922652032;-2844.095879629799;-0.00030976830839790637;-0.07731348114248249;83.33333333333333;-83.41064681447581
0.33600000000000024;-607843054.0;-596466662.0;-6.0;-2844.096231567661;-2844.0961893981075;-0.00030925392456992995;-0.07722890723016462;83.33333333333333;-83.4105622405635
0.34000000000000025;-619219441.0;-607843047.0;-7.0;-2844.0965401225067;-2844.096498652032;-0.00040491562913302914;-0.07713871139003459;83.33333333333333;-83.41047204472336
0.34400000000000025;-630595828.0;-619219434.0;-7.0;-2844.0968482182625;-2844.0969035676612;-0.00030855484556013835;-0.07702393895669957;83.33333333333333;-83.41035727229003
0.34800000000000025;-641972218.0;-630595822.0;-6.0;-2844.0971557578764;-2844.097212122507;-0.00021209575561442762;-0.076884903478458;0.0;-0.076884903478458
0.35200000000000026;-653348608.0;-641972211.0;-7.0;-2844.0974626772463;-2844.0974242182624;-0.00040353961412620265;-0.07672984247619752;0.0;-0.07672984247619752
0.35600000000000026;-664725000.0;-653348602.0;-6.0;-2844.0977689445544;-2844.0978277578765;-0.00021091936969241942;-0.07656682703327533;0.0;-0.07656682703327533
0.36000000000000026;-676101392.0;-664724994.0;-6.0;-2844.098074546956;-2844.098038677246;-0.0003062673081331013;-0.07640060039193486;0.0;-0.07640060039193486
0.36400000000000027;-687477787.0;-676101387.0;-5.0;-2844.09837947842;-2844.0983449445544;-0.00020960240181011613;-0.07623286603575252;0.0;-0.07623286603575252
0.36800000000000027;-698854182.0;-687477781.0;-6.0;-2844.098683731598;-2844.098554546956;-0.0004009314639006334;-0.0760632945002726;0.0;-0.0760632945002726
0.3720000000000003;-710230578.0;-698854176.0;-6.0;-2844.0989872963446;-2844.09895547842;-0.0003042531780010904;-0.07589118661144312;0.0;-0.07589118661144312
0.3760000000000003;-721606976.0;-710230573.0;-5.0;-2844.0992901580553;-2844.099259731598;-0.00020756474668814917;-0.0757154276698202;0.0;-0.0757154276698202
0.3800000000000003;-732983375.0;-721606970.0;-6.0;-2844.0995923008054;-2844.0994672963448;-0.0003988617104369041;-0.07553568752882711;0.0;-0.07553568752882711
0.3840000000000003;-744359775.0;-732983369.0;-6.0;-2844.0998937078866;-2844.099866158055;-0.00030214275011530844;-0.07535177030604245;0.0;-0.07535177030604245
0.3880000000000003;-755736176.0;-744359769.0;-6.0;-2844.100194362527;-2844.1001683008053;-0.0003014070812241698;-0.07516366008530895;0.0;-0.07516366008530895
0.3920000000000003;-767112579.0;-755736170.0;-6.0;-2844.1004942485824;-2844.1004697078865;-0.0003006546403412358;-0.07497151386814949;0.0;-0.07497151386814949
0.3960000000000003;-778488983.0;-767112573.0;-6.0;-2844.1007933497845;-2844.100770362527;-0.00029988605547259795;-0.07477530050437053;0.0;-0.07477530050437053
0.4000000000000003;-789865387.0;-778488977.0;-6.0;-2844.1010916503656;-2844.1010702485823;-0.00029910120201748214;-0.07457514527686726;0.0;-0.07457514527686726
0.4040000000000003;-801241794.0;-789865382.0;-5.0;-2844.1013891344655;-2844.1013693497844;-0.00020230058134984574;-0.07437102499352477;0.0;-0.07437102499352477
0.4080000000000003;-812618201.0;-801241788.0;-6.0;-2844.101685785594;-2844.1015716503657;-0.0003934840997317224;-0.07416278208438598;0.0;-0.07416278208438598
0.4120000000000003;-823994609.0;-812618195.0;-6.0;-2844.101981588142;-2844.1019651344654;-0.0002966511283375439;-0.07395063698822923;0.0;-0.07395063698822923
0.4160000000000003;-835371019.0;-823994604.0;-5.0;-2844.102276525494;-2844.102261785594;-0.00019980254819529364;-0.07373433800239582;0.0;-0.07373433800239582
0.4200000000000003;-846747430.0;-835371013.0;-6.0;-2844.1025705814127;-2844.102461588142;-0.00039093735176720656;-0.07351397971433471;0.0;-0.07351397971433471
0.4240000000000003;-858123842.0;-846747424.0;-6.0;-2844.1028637395666;-2844.1028525254937;-0.00029405591885733884;-0.07328953847718367;0.0;-0.07328953847718367
0.4280000000000003;-869500255.0;-858123836.0;-6.0;-2844.103155983496;-2844.1031465814126;-0.0002931581539087347;-0.0730609823449413;0.0;-0.0730609823449413
0.43200000000000033;-880876669.0;-869500249.0;-6.0;-2844.1034472966503;-2844.1034397395665;-0.0002922439293797652;-0.07282828858024004;0.0;-0.07282828858024004
0.43600000000000033;-892253085.0;-880876663.0;-6.0;-2844.1037376625086;-2844.103731983496;-0.00029131315432096017;-0.07259146457272436;0.0;-0.07259146457272436
0.44000000000000034;-903629501.0;-892253079.0;-6.0;-2844.1040270644885;-2844.10402329665;-0.00029036585829089745;-0.07235049497467116;0.0;-0.07235049497467116
0.44400000000000034;-915005919.0;-903629496.0;-5.0;-2844.104315485879;-2844.1043136625085;-0.00019340198014106136;-0.07210534761270537;0.0;-0.07210534761270537
0.44800000000000034;-926382338.0;-915005914.0;-5.0;-2844.104602910004;-2844.1045070644886;-0.0002884213904508215;-0.07185603124071349;0.0;-0.07185603124071349
0.45200000000000035;-937758758.0;-926382333.0;-5.0;-2844.104889320059;-2844.104795485879;-0.00028742412496285397;-0.07160251379900728;0.0;-0.07160251379900728
0.45600000000000035;-949135180.0;-937758753.0;-5.0;-2844.105174699462;-2844.105082910004;-0.00028641005519602913;-0.07134485076676356;0.0;-0.07134485076676356
0.46000000000000035;-960511602.0;-949135174.0;-6.0;-2844.1054590309063;-2844.1053693200593;-0.0003813794028246775;-0.07108286104084982;0.0;-0.07108286104084982
0.46400000000000036;-971888025.0;-960511597.0;-5.0;-2844.105742297714;-2844.105750699462;-0.00018833144440577598;-0.07081670196384948;0.0;-0.07081670196384948
0.46800000000000036;-983264450.0;-971888020.0;-5.0;-2844.1060244831456;-2844.1059390309065;-0.00028326680785539793;-0.07054635784697894;0.0;-0.07054635784697894
0.47200000000000036;-994640876.0;-983264444.0;-6.0;-2844.1063055699574;-2844.1062222977143;-0.00037818543114553904;-0.07027170295259566;0.0;-0.07027170295259566
0.47600000000000037;-1006017303.0;-994640870.0;-6.0;-2844.1065855410006;-2844.1066004831455;-0.00028108681181038264;-0.06999276081387507;0.0;-0.06999276081387507
0.48000000000000037;-1017393731.0;-1006017297.0;-6.0;-2844.1068643796607;-2844.1068815699573;-0.00027997104325550026;-0.06970966501285147;0.0;-0.06970966501285147
0.4840000000000004;-1028770160.0;-1017393725.0;-6.0;-2844.1071420683497;-2844.1071615410006;-0.0002788386600514059;-0.06942217225969216;0.0;-0.06942217225969216
0.4880000000000004;-1040146590.0;-1028770154.0;-6.0;-2844.1074185901066;-2844.1074403796606;-0.00027768868903876864;-0.06913043921485951;0.0;-0.06913043921485951
0.4920000000000004;-1051523021.0;-1040146584.0;-6.0;-2844.1076939277195;-2844.1077180683496;-0.00027652175685943803;-0.06883440323690593;0.0;-0.06883440323690593
0.4960000000000004;-1062899454.0;-1051523015.0;-6.0;-2844.1079680640405;-2844.1079945901065;-0.0002753376129476237;-0.0685340802419887;0.0;-0.0685340802419887
0.5000000000000003;-1074275887.0;-1062899448.0;-6.0;-2844.108240981543;-2844.1082699277194;-0.0002741363209679548;-0.06822937564265885;0.0;-0.06822937564265885
0.5040000000000003;-1085652322.0;-1074275882.0;-5.0;-2844.1085126632684;-2844.1085440640404;-0.0001769175028130121;-0.06792043132008985;0.0;-0.06792043132008985
0.5080000000000003;-1097028758.0;-1085652316.0;-6.0;-2844.1087830920033;-2844.1087209815432;-0.0003676817250379827;-0.0676071837233394;0.0;-0.0676071837233394
0.5120000000000003;-1108405194.0;-1097028752.0;-6.0;-2844.10905224972;-2844.1090886632683;-0.0002704287348933576;-0.06728942923928116;0.0;-0.06728942923928116
0.5160000000000003;-1119781632.0;-1108405189.0;-5.0;-2844.109320119993;-2844.109359092003;-0.00017315771719950135;-0.06696756815927074;0.0;-0.06696756815927074
