Zeit[sec];Sollposition[°];Istposition[°];Positionsschleppfehler[°];Sollgeschwindigkeit[°/s];Istgeschwindigkeit[°/s];Geschwindigkeitsdifferenz[°/s];Sollbeschleunigung[°/s*s];Istbeschleunigung[°/s*s];Beschleunigungsdifferenz[°/s*s]
0.0;0.0;2.0;-2.0;-1.884199756316873e-21;-0.000192;0.0;-2.919025561130486e-19;0.0;-2.919025561130486e-19
0.004;0.0;2.0;-2.0;-1.6131633232898873e-21;-0.000192;0.0;6.775910825674642e-20;0.0;6.775910825674642e-20
0.008;0.0;2.0;-2.0;-8.75261334155487e-22;-0.000192;0.0;1.844754972836001e-19;0.0;1.844754972836001e-19
0.012;0.0;2.0;-2.0;-2.391235388953606e-22;-0.000192;0.0;1.590344488150316e-19;0.0;1.590344488150316e-19
0.016;0.0;2.0;-2.0;1.0734337117001257e-22;-0.000192;0.0;8.661672751634329e-20;0.0;8.661672751634329e-20
0.02;0.0;2.0;-2.0;2.0352838774854772e-22;-0.000192;0.0;2.4046254144633788e-20;0.0;2.4046254144633788e-20
0.024;0.0;2.0;-2.0;1.6235405930599612e-22;-0.000192;0.0;-1.02935821106379e-20;0.0;-1.02935821106379e-20
0.028;0.0;2.0;-2.0;8.246024043101795e-23;-0.000192;0.0;-1.9973454718744543e-20;0.0;-1.9973454718744543e-20
0.032;0.0;2.0;-2.0;1.852286862185248e-23;-0.000192;0.0;-1.5984342952291368e-20;0.0;-1.5984342952291368e-20
0.036000000000000004;0.0;2.0;-2.0;-1.4282693877091068e-23;-0.000192;0.0;-8.201390624735887e-21;0.0;-8.201390624735887e-21
0.04000000000000001;0.0;2.0;-2.0;-2.1647207907466153e-23;-0.000192;0.0;-1.8411285075937714e-21;0.0;-1.8411285075937714e-21
0.04400000000000001;0.0;2.0;-2.0;-1.6179614157642227e-23;-0.000192;0.0;1.3668984374559815e-21;0.0;1.3668984374559815e-21
0.048000000000000015;-210.0;2.0;-2.0;-0.05270780904089876;-0.000192;0.0;-13.17695226022469;0.0;-13.17695226022469
0.05200000000000002;-2311.0;2.0;-212.0;-0.52526878289592;-0.000192;-0.07286780904089876;-118.14024346375533;0.0;-118.14024346375533
0.05600000000000002;-12639.0;-290.0;-2021.0;-2.5818025812212935;-0.07305980904089876;-0.6462249738550212;-514.1334495813434;0.0;-514.1334495813434
0.060000000000000026;-175914.0;-3167.0;-9472.0;-40.81890500817985;-0.71928478289592;-2.7718297983253732;-9559.275606739639;0.0;-9559.275606739639
0.06400000000000003;-419482.0;-17131.0;-158783.0;-60.89181653926447;-3.4911145812212934;-52.570958426958555;-5018.227882771155;0.0;-5018.227882771155
0.06800000000000003;-831580.0;-241379.0;-178103.0;-103.02449678965783;-56.06207300817985;-21.927631531084614;-10533.170062598341;-83.33333333333333;-10449.836729265007
0.07200000000000004;-1413688.0;-553337.0;-278243.0;-145.52720298989448;-77.98970453926447;-51.746120250393375;-10625.676550059161;-333.3333333333333;-10292.343216725829
0.07600000000000004;-2164529.0;-1072280.0;-341408.0;-187.71012868164948;-129.73582478965784;-48.566546200236644;-10545.73142293875;-666.6666666666666;-9879.064756272084
0.08000000000000004;-3132434.0;-1785489.0;-379040.0;-241.97629668147508;-178.30237098989448;-45.795597691755006;-13566.5419999564;-1000.0;-12566.5419999564
0.08400000000000005;-4389890.0;-2681880.0;-450554.0;-314.3639861953272;-224.0979686816495;-61.13151199982559;-18096.922378463027;-1333.3333333333333;-16763.589045129695
0.08800000000000005;-6005488.0;-3822797.0;-567093.0;-403.89934839257324;-285.2294806814751;-83.57543351385209;-22383.840549311513;-1750.0;-20633.840549311513
0.09200000000000005;-8032442.0;-5298016.0;-707472.0;-506.7384672569585;-368.80491419532717;-103.01174619724605;-25709.779716096305;-2333.3333333333335;-23376.446382762973
0.09600000000000006;-10512983.0;-7185282.0;-847160.0;-620.1352104185212;-471.8166603925732;-116.2491668643853;-28349.18579039068;-3000.0;-25349.18579039068
0.10000000000000006;-13479203.0;-9537545.0;-975438.0;-741.5550802631859;-588.0658272569585;-125.7114311615627;-30354.967461166183;-3750.0;-26604.967461166183
0.10400000000000006;-16953641.0;-12392654.0;-1086549.0;-868.6095528168872;-713.7772584185212;-132.08652584466472;-31763.61813842533;-4583.333333333333;-27180.284805091997
0.10800000000000007;-20952705.0;-15776109.0;-1177532.0;-999.7659202355977;-845.863784263186;-135.78884055370133;-32789.09185467762;-5583.333333333333;-27205.758521344287
0.11200000000000007;-25488394.0;-19702719.0;-1249986.0;-1133.9221182345523;-981.6526248168873;-138.11195141871053;-33539.04949973864;-6583.333333333333;-26955.716166405306
0.11600000000000008;-30568351.0;-24181777.0;-1306617.0;-1269.9891933008137;-1119.7645762355978;-139.5927739989545;-34016.76876656535;-7666.666666666667;-26350.102099898682
0.12000000000000008;-36196323.0;-29219206.0;-1349145.0;-1406.9929923518853;-1259.3573502345523;-140.14976306626136;-34250.9497627679;-8750.0;-25500.9497627679
0.12400000000000008;-42373294.0;-34817234.0;-1379089.0;-1544.2425550417395;-1399.5071133008137;-139.87842305107165;-34312.39067246355;-9916.666666666666;-24395.724005796885
0.12800000000000009;-49098793.0;-40974776.0;-1398518.0;-1681.3747863912188;-1539.3855363518853;-139.1147466898542;-34283.05783736982;-11000.0;-23283.057837369823
0.1320000000000001;-56369267.0;-47688777.0;-1410016.0;-1817.6184657996253;-1678.5002830417395;-138.23603934947937;-34060.91985210162;-12000.0;-22060.91985210162
0.1360000000000001;-64173745.0;-54955722.0;-1413545.0;-1951.1193514021527;-1816.736322391219;-136.58246340840628;-33375.22140063186;-13083.333333333334;-20291.888067298525
0.1400000000000001;-72494062.0;-62768997.0;-1404748.0;-2080.079028637722;-1953.3187857996252;-132.65637360252754;-32239.9193088923;-14166.666666666666;-18073.25264222563
0.1440000000000001;-81306908.0;-71112897.0;-1381165.0;-2203.2114626240054;-2085.9751594021527;-126.69570923556921;-30783.10849657089;-15250.0;-15533.10849657089
0.1480000000000001;-90581356.0;-79963580.0;-1343328.0;-2318.6120171722405;-2212.670868637722;-119.50008198628348;-28850.138637058764;-16250.0;-12600.138637058762
0.1520000000000001;-100277776.0;-89292263.0;-1289093.0;-2424.104664305933;-2332.1709506240054;-110.19399454823497;-26373.161783423144;-17250.0;-9123.161783423144
0.1560000000000001;-110350463.0;-99061722.0;-1216054.0;-2518.171733049066;-2442.3649451722404;-98.48090313369266;-23516.76718578324;-18166.666666666668;-5350.10051911657
0.16000000000000011;-120749321.0;-109225105.0;-1125358.0;-2599.714295419515;-2540.845848305933;-85.36025274313306;-20385.640592612275;-19083.333333333332;-1302.307259278944
0.16400000000000012;-131420178.0;-119729929.0;-1019392.0;-2667.7142398588576;-2626.206101049066;-71.36982637044912;-16999.98610983562;-19833.333333333332;2833.3472234977144
0.16800000000000012;-142308068.0;-130520232.0;-899946.0;-2721.972395235739;-2697.575927419515;-56.53312843934236;-13564.538844220351;-20500.0;6935.461155779649
0.17200000000000013;-153363235.0;-141536668.0;-771400.0;-2763.7914589981133;-2754.1090558588576;-41.9177393768814;-10454.765940593574;-21000.0;10545.234059406426
0.17600000000000013;-164542255.0;-152720775.0;-642460.0;-2794.7550470772007;-2796.026795235739;-29.440823762374293;-7740.8970197718645;-21500.0;13759.102980228135
0.18000000000000013;-175806813.0;-164022645.0;-519610.0;-2816.13919298335;-2825.4676189981133;-19.16998807908749;-5346.036476537279;-21833.333333333332;16487.296856796052
0.18400000000000014;-187126503.0;-175401195.0;-405618.0;-2829.922521062026;-2844.6376070772008;-10.440913906149035;-3445.8320196690693;-22083.333333333332;18637.501313664263
0.18800000000000014;-198479949.0;-186821509.0;-304994.0;-2838.3613137115904;-2855.07852098335;-4.12342407867618;-2109.698162391055;-22166.666666666668;20056.968504275614
0.19200000000000014;-209852066.0;-198258316.0;-221633.0;-2843.0290741650415;-2859.201945062026;-0.4361366495645598;-1166.9401133627844;-22250.0;21083.059886637217
0.19600000000000015;-221232287.0;-209696868.0;-155198.0;-2845.0550950588845;-2859.6380817115905;1.7099995465491702;-506.5052234607492;-22166.666666666668;21660.161443205918
0.20000000000000015;-232614158.0;-221128580.0;-103707.0;-2845.4677418972665;-2857.9280821650414;2.9171151061568708;-103.16170959549709;-22000.0;21896.838290404503
0.20400000000000015;-243994670.0;-232548623.0;-65535.0;-2845.1279165302394;-2855.0109670588845;3.251865161617843;84.95634175676514;-21666.666666666668;21751.623008423434
0.20800000000000016;-255373127.0;-243955659.0;-39011.0;-2844.613953662477;-2851.7591018972666;2.8861293670270243;128.4907169406324;-21250.0;21378.490716940632
0.21200000000000016;-266749975.0;-255351150.0;-21977.0;-2844.2120024754763;-2848.8729725302396;2.149226867762536;100.4877967501443;-20833.333333333332;20933.821130083477
0.21600000000000016;-278125955.0;-266738044.0;-11931.0;-2843.9948171118563;-2846.723745662477;1.366367187000833;54.296340905011675;-20500.0;20554.296340905013
0.22000000000000017;-289501654.0;-278119473.0;-6482.0;-2843.924605159521;-2845.3573784754763;0.7402893636199224;17.55298808382122;-20000.0;20017.552988083822
0.22400000000000017;-300877389.0;-289497941.0;-3713.0;-2843.93346808457;-2844.6170891118563;0.3360359523353509;-2.2157312622539393;-19333.333333333332;19331.117602071077
0.22800000000000017;-312253255.0;-300875065.0;-2324.0;-2843.966538904729;-2844.281053159521;0.12448107495083605;-8.26770503977059;-18500.0;18491.73229496023
0.23200000000000018;-323629233.0;-312251691.0;-1564.0;-2843.99433874547;-2844.15657208457;0.039889179840884026;-6.949960185238524;-17583.333333333332;17576.38337314809
0.23600000000000018;-335005267.0;-323628157.0;-1076.0;-2844.0081962172067;-2844.1166829047293;0.019048159259455133;-3.4643679341570532;-16666.666666666668;16663.20229873251
0.24000000000000019;-346381310.0;-335004547.0;-720.0;-2844.0106285648935;-2844.09763474547;0.02031852826303293;-0.608086921715767;-15583.333333333334;15582.725246411617
0.2440000000000002;-357757340.0;-346380856.0;-454.0;-2844.0073590133597;-2844.0773162172068;0.023103652313238854;0.8173878834440984;-14583.333333333334;14584.150721216778
0.2480000000000002;-369133352.0;-357757072.0;-268.0;-2844.003014046556;-2844.0542125648935;0.021125551533714315;1.086241700932078;-13416.666666666666;13417.752908367598
0.25200000000000017;-380509352.0;-369133204.0;-148.0;-2843.9999086304197;-2844.03308701336;0.015864966803746938;0.7763540340874897;-12333.333333333334;12334.109687367421
0.25600000000000017;-391885347.0;-380509272.0;-80.0;-2843.998501612833;-2844.017222046556;0.009633416136239248;0.35175439666090824;-11250.0;11250.35175439666
0.2600000000000002;-403261341.0;-391885302.0;-45.0;-2843.9983198171394;-2844.00758863042;0.004767017586800648;0.04544892340163642;-10250.0;10250.045448923402
0.2640000000000002;-414637336.0;-403261313.0;-28.0;-2843.9986982916835;-2844.002821612833;0.001813795693578868;-0.09461863601245568;-9166.666666666666;9166.572048030654
0.2680000000000002;-426013333.0;-414637317.0;-19.0;-2843.9991535529803;-2844.0010078171395;0.00048552545604252373;-0.11381532419818541;-8000.0;7999.886184675802
0.2720000000000002;-437389332.0;-426013319.0;-14.0;-2843.999462741325;-2844.0005222916834;2.473870335961692e-05;-0.07729708613624098;-6916.666666666667;6916.589369580531
0.2760000000000002;-448765330.0;-437389320.0;-12.0;-2843.9995938209736;-2844.00049755298;-0.00011718834457496996;-0.03276991219536285;-5916.666666666667;5916.633896754472
0.2800000000000002;-460141329.0;-448765322.0;-8.0;-2843.999603364319;-2844.0006147413246;0.0002529203511585365;-0.0023858362965256674;-5000.0;4999.9976141637035
0.2840000000000002;-471517328.0;-460141323.0;-6.0;-2843.9995612327803;-2844.0003618209735;0.00018245665478389128;0.010532884630265471;-4000.0;4000.0105328846303
0.2880000000000002;-482893327.0;-471517323.0;-5.0;-2843.9995153610075;-2844.0001793643187;0.00013813153827868518;0.011467943181742157;-3166.6666666666665;3166.6781346098483
0.2920000000000002;-494269325.0;-482893323.0;-4.0;-2843.9994862706576;-2844.0000412327804;0.00014187177293933928;0.007272587481566006;-2416.6666666666665;2416.673939254148
0.2960000000000002;-505645324.0;-494269322.0;-3.0;-2843.9994755741373;-2843.9998993610075;0.00012509034968388733;0.002674130087143567;-1750.0;1750.0026741300871
0.3000000000000002;-517021322.0;-505645321.0;-3.0;-2843.999476736672;-2843.999774270658;1.0696520348574268e-05;-0.0002906336931118858;-1166.6666666666667;1166.6663760329736
0.3040000000000002;-528397321.0;-517021320.0;-2.0;-2843.999482538023;-2843.9997635741374;9.483746543992311e-05;-0.0014503377769869985;-750.0;749.998549662223
0.3080000000000002;-539773319.0;-528397318.0;-3.0;-2843.999488308815;-2843.999668736672;-0.00010180135132031864;-0.001442698021492106;-416.6666666666667;416.6652239686452
0.3120000000000002;-551149318.0;-539773317.0;-2.0;-2843.999492220616;-2843.9997705380233;9.022920812640223e-05;-0.0009779502079254598;-166.66666666666666;166.66568871645873
0.3160000000000002;-562525316.0;-551149315.0;-3.0;-2843.999494291799;-2843.999680308815;-9.991180104407249e-05;-0.0005177956836632802;0.0;-0.0005177956836632802
0.32000000000000023;-573901315.0;-562525314.0;-2.0;-2843.999495268744;-2843.9997802206162;9.392881747771753e-05;-0.00024423627564829076;83.33333333333333;-83.33357756960898
0.32400000000000023;-585277313.0;-573901312.0;-3.0;-2843.9994958961815;-2843.9996862917988;-9.697694531496381e-05;-0.00015685941434639972;83.33333333333333;-83.33349019274767
0.32800000000000024;-596653312.0;-585277311.0;-2.0;-2843.99949662783;-2843.999783268744;9.537256255498505e-05;-0.0001829121174523607;166.66666666666666;-166.6668495787841
0.33200000000000024;-608029310.0;-596653309.0;-3.0;-2843.9994976233374;-2843.9996878961815;-9.67316486821801e-05;-0.0002488768586772494;83.33333333333333;-83.333582210192
0.33600000000000024;-619405309.0;-608029308.0;-2.0;-2843.9994988632925;-2843.99978462783;9.500449277766165e-05;-0.0003099887635471532;83.33333333333333;-83.33364332209688
0.34000000000000025;-630781307.0;-619405306.0;-3.0;-2843.9995002641203;-2843.9996896233374;-9.723995526655926e-05;-0.00035020696032006526;0.0;-0.00035020696032006526
0.34400000000000025;-642157306.0;-630781305.0;-2.0;-2843.9995017497176;-2843.9997868632927;9.459917237109039e-05;-0.0003713993237397517;0.0;-0.0003713993237397517
0.34800000000000025;-653533304.0;-642157303.0;-3.0;-2843.999503276019;-2843.9996922641203;-9.748559750732966e-05;-0.00038157531889737584;0.0;-0.00038157531889737584
0.35200000000000026;-664909303.0;-653533302.0;-2.0;-2843.9995048293003;-2843.999789749718;9.447369893678115e-05;-0.0003883203589793993;0.0;-0.0003883203589793993
0.35600000000000026;-676285302.0;-664909300.0;-3.0;-2843.9995064127024;-2843.999695276019;-9.755328164828825e-05;-0.0003958505203627283;0.0;-0.0003958505203627283
0.36000000000000026;-687661300.0;-676285299.0;-3.0;-2843.999508035395;-2843.9997928293005;-1.583402081450913e-06;-0.0004056731768287136;0.0;-0.0004056731768287136
0.36400000000000027;-699037299.0;-687661298.0;-2.0;-2843.9995097046976;-2843.9997944127026;9.43773075050558e-05;-0.0004173256229478284;0.0;-0.0004173256229478284
0.36800000000000027;-710413297.0;-699037296.0;-3.0;-2843.9995114241906;-2843.999700035395;-9.766930270416196e-05;-0.00042987323922716314;0.0;-0.00042987323922716314
0.3720000000000003;-721789296.0;-710413295.0;-2.0;-2843.9995131950973;-2843.999797704698;9.4280507255462e-05;-0.00044272667309996905;0.0;-0.00044272667309996905
0.3760000000000003;-733165295.0;-721789293.0;-3.0;-2843.999515016446;-2843.9997034241906;-9.777090690477053e-05;-0.00045533715820056386;0.0;-0.00045533715820056386
0.3800000000000003;-744541293.0;-733165292.0;-3.0;-2843.999516887011;-2843.9998011950975;-1.8213486328022555e-06;-0.0004676412572734989;0.0;-0.0004676412572734989
0.3840000000000003;-755917292.0;-744541291.0;-2.0;-2843.9995188055987;-2843.999803016446;9.412943518327666e-05;-0.00047964692839741474;0.0;-0.00047964692839741474
0.3880000000000003;-767293290.0;-755917289.0;-3.0;-2843.9995207714555;-2843.999708887011;-9.791858792596031e-05;-0.0004914642204312258;0.0;-0.0004914642204312258
0.3920000000000003;-778669289.0;-767293288.0;-2.0;-2843.9995227844865;-2843.999806805599;9.403414333064575e-05;-0.0005032577519159531;83.33333333333333;-83.33383659108524
0.3960000000000003;-790045288.0;-778669286.0;-3.0;-2843.9995248443784;-2843.9997127714555;-9.801303122003446e-05;-0.0005149729531694902;83.33333333333333;-83.3338483062865
0.4000000000000003;-801421286.0;-790045285.0;-3.0;-2843.9995269508177;-2843.9998107844867;-2.059891812677961e-06;-0.0005266098241918371;83.33333333333333;-83.33385994315752
0.4040000000000003;-812797285.0;-801421284.0;-2.0;-2843.999529103457;-2843.9998128443785;9.38935609156033e-05;-0.0005381598384701647;0.0;-0.0005381598384701647
0.4080000000000003;-824173284.0;-812797282.0;-3.0;-2843.9995313020468;-2843.9997189508176;-9.815263956625131e-05;-0.0005496474386745831;0.0;-0.0005496474386745831
0.4120000000000003;-835549282.0;-824173281.0;-3.0;-2843.999533546524;-2843.999817103457;-2.1985897546983324e-06;-0.0005611193500953959;0.0;-0.0005611193500953959
0.4160000000000003;-846925281.0;-835549280.0;-2.0;-2843.9995358363853;-2843.999819302047;9.375552281198907e-05;-0.0005724652965000132;0.0;-0.0005724652965000132
0.4200000000000003;-858301280.0;-846925278.0;-3.0;-2843.9995381712542;-2843.999725546524;-9.82898613983707e-05;-0.0005837172238898347;0.0;-0.0005837172238898347
0.4240000000000003;-869677278.0;-858301277.0;-3.0;-2843.999540550722;-2843.9998238363855;-2.334868895559339e-06;-0.0005948669468125445;0.0;-0.0005948669468125445
0.4280000000000003;-881053277.0;-869677276.0;-2.0;-2843.9995429745704;-2843.9998261712544;9.362053242512047e-05;-0.0006059621000531479;0.0;-0.0006059621000531479
0.43200000000000033;-892429276.0;-881053274.0;-3.0;-2843.99954544242;-2843.999732550722;-9.842384861258324e-05;-0.0006169624384710914;0.0;-0.0006169624384710914
0.43600000000000033;-903805275.0;-892429273.0;-3.0;-2843.999547953834;-2843.9998309745706;-2.4678497538843658e-06;-0.0006278534101511468;0.0;-0.0006278534101511468
0.44000000000000034;-915181273.0;-903805272.0;-3.0;-2843.999550508558;-2843.9998334424204;-2.5114136406045873e-06;-0.0006386810582625913;0.0;-0.0006386810582625913
0.44400000000000034;-926557272.0;-915181271.0;-2.0;-2843.9995531061863;-2843.999835953834;9.344527597932029e-05;-0.0006494070703411126;0.0;-0.0006494070703411126
0.44800000000000034;-937933271.0;-926557269.0;-3.0;-2843.999555746341;-2843.999742508558;-9.85976284937351e-05;-0.0006600386086574872;0.0;-0.0006600386086574872
0.45200000000000035;-949309270.0;-937933268.0;-3.0;-2843.999558428582;-2843.9998411061865;-2.640154434629949e-06;-0.0006705603254886228;0.0;-0.0006705603254886228
0.45600000000000035;-960685268.0;-949309267.0;-3.0;-2843.9995611526274;-2843.999843746341;-2.682241301954491e-06;-0.0006810113291066955;0.0;-0.0006810113291066955
0.46000000000000035;-972061267.0;-960685266.0;-2.0;-2843.9995639181625;-2843.9998464285823;9.327595489594387e-05;-0.0006913837751199026;0.0;-0.0006913837751199026
0.46400000000000036;-983437266.0;-972061265.0;-2.0;-2843.999566724653;-2843.9997531526274;-2.7655351004796103e-06;-0.0007016226390987867;0.0;-0.0007016226390987867
0.46800000000000036;-994813265.0;-983437264.0;-2.0;-2843.9995695716607;-2843.9997559181625;-2.806490556395147e-06;-0.0007117519089661073;0.0;-0.0007117519089661073
0.47200000000000036;-1006189264.0;-994813263.0;-2.0;-2843.999572459027;-2843.999758724653;-2.847007635864429e-06;-0.0007218416158139007;0.0;-0.0007218416158139007
0.47600000000000037;-1017565262.0;-1006189262.0;-2.0;-2843.999575386125;-2843.9997615716607;-2.887366463255603e-06;-0.0007317744348256383;0.0;-0.0007317744348256383
0.48000000000000037;-1028941261.0;-1017565261.0;-1.0;-2843.9995783527343;-2843.999764459027;9.307290201832075e-05;-0.0007416523430947564;0.0;-0.0007416523430947564
0.4840000000000004;-1040317260.0;-1028941259.0;-2.0;-2843.999581358415;-2843.999671386125;-9.896660913000233e-05;-0.0007514202025049599;0.0;-0.0007514202025049599
0.4880000000000004;-1051693259.0;-1040317258.0;-2.0;-2843.999584402538;-2843.9997703527342;-3.0056808100198396e-06;-0.0007610307193317567;0.0;-0.0007610307193317567
0.4920000000000004;-1063069258.0;-1051693257.0;-2.0;-2843.9995874849483;-2843.999773358415;-3.044122877327027e-06;-0.0007706025826337282;0.0;-0.0007706025826337282
