Zeit[sec];Sollposition[°];Istposition[°];Positionsschleppfehler[°];Sollgeschwindigkeit[°/s];Istgeschwindigkeit[°/s];Geschwindigkeitsdifferenz[°/s];Sollbeschleunigung[°/s*s];Istbeschleunigung[°/s*s];Beschleunigungsdifferenz[°/s*s]
0.0;0.0;-4.0;4.0;-0.0;0.00023999999999999998;0.0;0.0;0.0;0.0
0.004;0.0;-4.0;4.0;-0.0;0.00023999999999999998;0.0;0.0;0.0;0.0
0.008;0.0;-4.0;4.0;-0.0;0.00023999999999999998;0.0;0.0;0.0;0.0
0.012;0.0;-4.0;4.0;-0.0;0.00023999999999999998;0.0;0.0;0.0;0.0
0.016;0.0;-4.0;4.0;-0.0;0.00023999999999999998;0.0;0.0;0.0;0.0
0.02;0.0;-4.0;4.0;-0.0;0.00023999999999999998;0.0;0.0;0.0;0.0
0.024;0.0;-4.0;4.0;-0.0;0.00023999999999999998;0.0;0.0;0.0;0.0
0.028;0.0;-4.0;4.0;-0.0;0.00023999999999999998;0.0;0.0;0.0;0.0
0.032;0.0;-4.0;4.0;-0.0;0.00023999999999999998;0.0;0.0;0.0;0.0
0.036000000000000004;0.0;-4.0;4.0;-0.0;0.00023999999999999998;0.0;0.0;0.0;0.0
0.04000000000000001;0.0;-4.0;4.0;-0.0;0.00023999999999999998;0.0;0.0;0.0;0.0
0.04400000000000001;0.0;-4.0;4.0;-0.0;0.00023999999999999998;0.0;0.0;0.0;0.0
0.048000000000000015;355.0;-4.0;4.0;0.08895832749512751;0.00023999999999999998;0.0;22.239581873781876;0.0;22.239581873781876
0.05200000000000002;3901.0;-4.0;359.0;0.886529591384924;0.00023999999999999998;0.1102583274951275;199.39281597244914;0.0;199.39281597244914
0.05600000000000002;21331.0;437.0;3464.0;4.357472710919048;0.1104983274951275;0.9838712638897966;867.7357798835309;0.0;867.7357798835309
0.060000000000000026;78943.0;4814.0;16517.0;14.40293309007478;1.094369591384924;4.254123119534123;2511.365094788933;0.0;2511.365094788933
0.06400000000000003;225094.0;26207.0;52736.0;36.537846935217104;5.348492710919047;12.218600379155735;5533.728461285581;0.0;5533.728461285581
0.06800000000000003;530768.0;96475.0;128619.0;76.4183941945475;17.56709309007478;26.687893845142323;9970.1368148326;0.0;9970.1368148326
0.07200000000000004;1082863.0;273494.0;257274.0;138.02378727327385;44.254986935217104;47.5998472593304;15401.348269681588;166.66666666666666;15234.68160301492
0.07600000000000004;1975530.0;640913.0;441950.0;223.16671327945454;91.85483419454751;72.68595307872634;21285.73150154517;416.6666666666667;20869.064834878503
0.08000000000000004;3305773.0;1299076.0;676454.0;332.5606841823934;164.54078727327385;99.2131660061807;27348.492725734715;833.3333333333334;26515.159392401383
0.08400000000000005;5172338.0;2354091.0;951682.0;466.6411979427919;263.75395327945455;125.90765090293883;33520.12844009962;1333.3333333333333;32186.795106766294
0.08800000000000005;7672610.0;3912737.0;1259601.0;625.0680333358902;389.6616041823934;152.5556537603985;39606.70884827457;2083.3333333333335;37523.37551494123
0.09200000000000005;10896386.0;6081606.0;1591004.0;805.9439375137194;542.2172579427919;178.31101539309827;45218.97604445732;3083.3333333333335;42135.64271112399
0.09600000000000006;14920121.0;8963719.0;1932667.0;1005.93372153271;720.5282733358902;201.37568417782927;49997.446004747646;4333.333333333333;45664.11267141431
0.10000000000000006;19803436.0;12651334.0;2268787.0;1220.828675045899;921.9039575137194;220.15698401899067;53723.73837829724;5666.666666666667;48057.071711630575
0.10400000000000006;25587176.0;17219577.0;2583859.0;1445.9349386325032;1142.06094153271;233.79927351318884;56276.56589665105;7250.0;49026.56589665105
0.10800000000000007;32293989.0;22723017.0;2864159.0;1676.703133299592;1375.860215045899;241.92426358660418;57692.04866677222;8916.666666666666;48775.38200010556
0.11200000000000007;39932369.0;29194154.0;3099835.0;1909.5950233761512;1617.7844786325031;244.90875466708894;58222.972519139774;10833.333333333334;47389.63918580644
0.11600000000000008;48502448.0;36644926.0;3287443.0;2142.519693364469;1862.693233299592;244.14837007655933;58231.16749707941;12666.666666666666;45564.50083041275
0.12000000000000008;58001068.0;45072292.0;3430156.0;2374.654867366623;2106.8416033761514;241.48744998831717;58033.79350053854;14583.333333333334;43450.4601672052
0.12400000000000008;68424927.0;54465608.0;3535460.0;2605.964581221245;2348.3290533644686;238.4534140021542;57827.42846365557;16416.666666666668;41410.761796988896
0.12800000000000009;79771843.0;64812737.0;3612190.0;2836.7288142659027;2586.7824673666228;235.91351385462258;57691.058261164355;18333.333333333332;39357.72492783103
0.1320000000000001;92040015.0;76103520.0;3668323.0;3067.0427429630704;2822.6959812212453;234.13221304465742;57578.48217429194;20166.666666666668;37411.815507625266
0.1360000000000001;105224029.0;88330832.0;3709183.0;3296.003332392512;3056.8281942659028;232.7655286971676;57240.14735736046;22083.333333333332;35156.814024027124
0.1400000000000001;119308285.0;101489206.0;3734823.0;3521.0638836257212;3289.5937229630704;230.49898942944174;56265.13780830226;23833.333333333332;32431.804474968925
0.1440000000000001;134261670.0;115569576.0;3738709.0;3738.346094117883;3520.092712392512;225.29371123320925;54320.552623040385;25666.666666666668;28653.885956373717
0.1480000000000001;150035258.0;130551121.0;3710549.0;3943.3968454634005;3745.3864236257214;215.59261049216138;51262.687836379424;27416.666666666668;23846.02116971276
0.1520000000000001;166561906.0;146395037.0;3640221.0;4131.661899720684;3960.9790341178827;200.831071345518;47066.263564320936;29250.0;17816.263564320936
0.1560000000000001;183757926.0;163042277.0;3519629.0;4299.00469574352;4161.810105463401;181.02953425728356;41835.69900570888;30916.666666666668;10919.032339042207
0.16000000000000011;201527343.0;180413635.0;3344291.0;4442.354044992008;4342.839639720684;156.82251602283577;35837.337312122145;32500.0;3337.337312122145
0.16400000000000012;219767252.0;198412283.0;3115060.0;4559.976923563402;4499.66215574352;129.59548924848787;29405.719642848453;33916.666666666664;-4510.947023818211
0.16800000000000012;238373054.0;216929313.0;2837939.0;4651.450284456862;4629.257644992008;100.99561857139452;22868.340223365067;35083.333333333336;-12214.993109968269
0.17200000000000013;257244657.0;235850326.0;2522728.0;4717.900520578002;4730.2532635634025;72.56070089346031;16612.559030284956;36083.333333333336;-19470.77430304838
0.17600000000000013;276293580.0;255061581.0;2183076.0;4762.230578492813;4802.813964456863;46.07111612113931;11082.514478702706;36833.333333333336;-25750.81885463063
0.18000000000000013;295447962.0;274457121.0;1836459.0;4788.59540232184;4848.885080578002;23.533037914810848;6591.205957256761;37500.0;-30908.79404274324
0.18400000000000014;314654328.0;293946793.0;1501169.0;4801.591189255792;4872.418118492813;6.247423829026957;3248.946733488083;37833.333333333336;-34584.38659984525
0.18800000000000014;333877571.0;313461455.0;1192873.0;4805.810511876875;4878.66554232184;-5.501973066047867;1054.8306552707345;38000.0;-36945.169344729264
0.19200000000000014;353099072.0;332954109.0;923462.0;4805.374975231071;4873.163569255792;-11.94533737891652;-108.88416145098745;38000.0;-38108.88416145099
0.19600000000000015;372312394.0;352398981.0;700091.0;4803.3302438268565;4861.2182318768755;-13.837796645803792;-511.18285105371797;38000.0;-38511.182851053716
0.20000000000000015;391517980.0;371788502.0;523892.0;4801.396347352665;4847.380435231072;-12.616671404215595;-483.4741185479743;37833.333333333336;-38316.80745188131
0.20400000000000015;410718777.0;391127557.0;390423.0;4800.198921614572;4834.763763826856;-9.94203647419181;-299.35643452313343;37500.0;-37799.356434523135
0.20800000000000016;429917631.0;410426843.0;291934.0;4799.713481642849;4824.821727352664;-7.106765738091781;-121.35999293082023;37000.0;-37121.35999293082
0.21200000000000016;449116310.0;429697702.0;219929.0;4799.669500506065;4817.7149616145725;-4.805739971723597;-10.995284196042121;36333.333333333336;-36344.328617529376
0.21600000000000016;468315511.0;448949338.0;166972.0;4799.800011135778;4812.909221642849;-3.221401136784152;32.62765742829288;35500.0;-35467.3723425717
0.22000000000000017;487515268.0;468188089.0;127422.0;4799.938992779414;4809.687820506065;-2.2424893702873305;34.745410908954;34500.0;-34465.25458909105
0.22400000000000017;506715357.0;487417870.0;97398.0;4800.021922493929;4807.445331135777;-1.6624583563634587;20.732428628889465;33250.0;-33229.26757137111
0.22800000000000017;525915548.0;506641001.0;74356.0;4800.047648025944;4805.782872779414;-1.2995902854845554;6.43138300370083;31916.666666666668;-31910.235283662965
0.23200000000000018;545115707.0;525858934.0;56614.0;4800.039405267983;4804.483282493929;-1.038794467985099;-2.0606894902357453;30250.0;-30252.060689490238
0.23600000000000018;564315789.0;545072711.0;42996.0;4800.020367555312;4803.444488025944;-0.8253227579616578;-4.7594281677447725;28583.333333333332;-28588.092761501077
0.24000000000000019;583515807.0;564283187.0;32602.0;4800.004276732024;4802.619165267983;-0.6426777126707748;-4.022705822080752;26750.0;-26754.02270582208
0.2440000000000002;602715790.0;583491092.0;24715.0;4799.995580370644;4801.976487555312;-0.48931082328817865;-2.17409034485172;24916.666666666668;-24918.84075701152
0.2480000000000002;621915764.0;602697040.0;18750.0;4799.9932101187715;4801.487176732024;-0.36659636137937923;-0.5925629682224098;23000.0;-23000.592562968224
0.25200000000000017;641115742.0;621901522.0;14242.0;4799.994285636422;4801.120580370644;-0.2728502518730238;0.2688794127152505;21083.333333333332;-21083.06445392062
0.25600000000000017;660315728.0;641104912.0;10830.0;4799.996317585717;4800.847730118771;-0.20364448234886368;0.5079873237718857;19166.666666666668;-19166.158679342894
0.2600000000000002;679515721.0;660307488.0;8240.0;4799.9979406626735;4800.6440856364225;-0.15336805070546689;0.40576923902335693;17333.333333333332;-17332.92756409431
0.2640000000000002;698715717.0;679509450.0;6271.0;4799.9987696473045;4800.490717585717;-0.11651692304349126;0.20724615774270205;15416.666666666666;-15416.459420508923
0.2680000000000002;717915714.0;698710946.0;4771.0;4799.998960248046;4800.3742006626735;-0.08917101536917471;0.04765018547914224;13583.333333333334;-13583.285683147855
0.2720000000000002;737115710.0;717912086.0;3628.0;4799.998823111122;4800.285029647304;-0.06838939925819432;-0.03428423110563017;11750.0;-11750.034284231106
0.2760000000000002;756315705.0;737112952.0;2758.0;4799.998609529411;4800.216640248046;-0.05233713692450692;-0.05339542781257478;10000.0;-10000.053395427813
0.2800000000000002;775515700.0;756313609.0;2096.0;4799.998449190151;4800.164303111122;-0.03993358171101136;-0.04008481482742354;8250.0;-8250.040084814827
0.2840000000000002;794715694.0;775514106.0;1594.0;4799.998372810121;4800.124369529411;-0.03028033925966156;-0.019095007701253053;6583.333333333333;-6583.352428341034
0.2880000000000002;813915689.0;794714482.0;1212.0;4799.998359757728;4800.094089190151;-0.02299638003023574;-0.003263098051320412;5083.333333333333;-5083.336596431384
0.2920000000000002;833115683.0;813914766.0;923.0;4799.9983770463;4800.071092810121;-0.017353052392536483;0.004322143013268942;3666.6666666666665;-3666.6623445236532
0.2960000000000002;852315678.0;833114980.0;703.0;4799.9983996726705;4800.053739757728;-0.013182711427361937;0.005656592520608683;2416.6666666666665;-2416.661010074146
0.3000000000000002;871515672.0;852315142.0;536.0;4799.998415588357;4800.040557046301;-0.009997373630540096;0.0039789215406926814;1416.6666666666667;-1416.662687745126
0.3040000000000002;890715667.0;871515264.0;408.0;4799.998422614232;4800.03055967267;-0.007664084313546482;0.0017564689187565818;666.6666666666666;-666.6649101977479
0.3080000000000002;909915662.0;890715355.0;312.0;4799.998423354952;4800.022895588357;-0.005752974124334287;0.00018517994249123149;83.33333333333333;-83.33314815339084
0.3120000000000002;929115656.0;909915423.0;239.0;4799.998421302922;4800.017142614232;-0.004379259280540282;-0.0005130075351189589;-333.3333333333333;333.3328203257982
0.3160000000000002;948315651.0;929115474.0;182.0;4799.99841893996;4800.012763354952;-0.0034220520301460056;-0.000590740455663763;-583.3333333333334;583.3327425928777
0.32000000000000023;967515645.0;948315511.0;140.0;4799.998417376113;4800.009341302922;-0.0025223629618267296;-0.00039096175896702334;-583.3333333333334;583.3329423715744
0.32400000000000023;986715640.0;967515538.0;107.0;4799.998416741402;4800.00681893996;-0.0019815638470390695;-0.00015867772162891924;-583.3333333333334;583.3331746556117
0.32800000000000024;1005915634.0;986715557.0;83.0;4799.998416724546;4800.004837376113;-0.001440634710888844;-4.214143700664863e-06;-416.6666666666667;416.666662452523
0.33200000000000024;1025115629.0;1005915570.0;64.0;4799.998416960383;4800.003396741402;-0.001140016855970316;5.895935828448273e-05;-333.3333333333333;333.3333922926916
0.33600000000000024;1044315624.0;1025115579.0;50.0;4799.998417204809;4800.002256724546;-0.00083976416317455;6.110644790169317e-05;-250.0;250.0000611064479
0.34000000000000025;1063515618.0;1044315584.0;40.0;4799.998417356967;4800.001416960383;-0.0005997555736030336;3.8039615901652724e-05;-250.0;250.0000380396159
0.34400000000000025;1082715613.0;1063515587.0;31.0;4799.998417412977;4800.000817204809;-0.0005398478415372665;1.400235305482056e-05;-166.66666666666666;166.6666806690197
0.34800000000000025;1101915607.0;1082715588.0;25.0;4799.998417408968;4800.000277356968;-0.0003599439905883628;-1.002263161353767e-06;-166.66666666666666;166.6666656644035
0.35200000000000026;1121115602.0;1101915587.0;20.0;4799.998417382379;4799.999917412977;-0.0003000040096594603;-6.647269401582889e-06;-83.33333333333333;83.33332668606393
0.35600000000000026;1140315596.0;1121115585.0;17.0;4799.99841735738;4799.999617408967;-0.00018002658907789737;-6.249592843232676e-06;-83.33333333333333;83.33332708374049
0.36000000000000026;1159515591.0;1140315582.0;14.0;4799.998417342686;4799.999437382378;-0.00018002499837166397;-3.6736764741363004e-06;0.0;-3.6736764741363004e-06
0.36400000000000027;1178715586.0;1159515579.0;12.0;4799.998417337947;4799.99925735738;-0.00012001469440292567;-1.184616849059239e-06;0.0;-1.184616849059239e-06
0.36800000000000027;1197915580.0;1178715575.0;11.0;4799.9984173388375;4799.999137342686;-6.000473877065815e-05;2.2259882825892419e-07;0.0;2.2259882825892419e-07
0.3720000000000003;1217115575.0;1197915571.0;9.0;4799.998417341701;4799.999077337947;-0.00011999910930171609;7.157723302952945e-07;0.0;7.157723302952945e-07
0.3760000000000003;1236315569.0;1217115566.0;9.0;4799.998417344373;4799.9989573388375;2.863089321181178e-09;6.680238584522158e-07;0.0;6.680238584522158e-07
0.3800000000000003;1255515564.0;1236315561.0;8.0;4799.998417345644;4799.998957341701;-5.9997328207828104e-05;3.178683982696384e-07;0.0;3.178683982696384e-07
0.3840000000000003;1274715559.0;1255515556.0;8.0;4799.99841734628;4799.998897344372;1.2714735930785537e-09;1.589341991348192e-07;0.0;1.589341991348192e-07
0.3880000000000003;1293915553.0;1274715551.0;8.0;4799.998417345962;4799.998897345644;6.357367965392768e-10;-7.958078640513122e-08;0.0;-7.958078640513122e-08
0.3920000000000003;1313115548.0;1293915546.0;7.0;4799.998417345644;4799.99889734628;-6.000031771691283e-05;-7.935341272968799e-08;0.0;-7.935341272968799e-08
0.3960000000000003;1332315542.0;1313115541.0;7.0;4799.998417345326;4799.998837345962;-3.1741365091875196e-10;-7.958078640513122e-08;0.0;-7.958078640513122e-08
0.4000000000000003;1351515537.0;1332315536.0;6.0;4799.998417345453;4799.9988373456445;-6.0000318626407534e-05;3.183231456205249e-08;0.0;3.183231456205249e-08
0.4040000000000003;1370715531.0;1351515531.0;6.0;4799.998417345136;4799.998777345326;1.2732925824820995e-10;-7.935341272968799e-08;0.0;-7.935341272968799e-08
0.4080000000000003;1389915526.0;1370715526.0;5.0;4799.998417345262;4799.998777345453;-6.000031771691283e-05;3.1604940886609256e-08;0.0;3.1604940886609256e-08
0.4120000000000003;1409115521.0;1389915520.0;6.0;4799.998417345262;4799.998717345135;6.000012672302546e-05;0.0;0.0;0.0
0.4160000000000003;1428315515.0;1409115515.0;6.0;4799.998417345262;4799.998777345262;0.0;0.0;0.0;0.0
0.4200000000000003;1447515510.0;1428315510.0;5.0;4799.998417345453;4799.998777345262;-6.000000030326191e-05;4.774847184307873e-08;0.0;4.774847184307873e-08
0.4240000000000003;1466715504.0;1447515504.0;6.0;4799.998417345326;4799.998717345262;6.0000191297149286e-05;-3.183231456205249e-08;0.0;-3.183231456205249e-08
0.4280000000000003;1485915499.0;1466715499.0;5.0;4799.998417345262;4799.998777345453;-6.000012763252016e-05;-1.5916157281026244e-08;0.0;-1.5916157281026244e-08
0.43200000000000033;1505115494.0;1485915493.0;6.0;4799.99841734539;4799.9987173453255;5.999993663863279e-05;3.205968823749572e-08;0.0;3.205968823749572e-08
0.43600000000000033;1524315488.0;1505115488.0;6.0;4799.99841734539;4799.998777345262;1.2823875294998288e-10;0.0;0.0;0.0
0.44000000000000034;1543515483.0;1524315483.0;5.0;4799.9984173451985;4799.99877734539;-6.000000030326191e-05;-4.7975845518521965e-08;0.0;-4.7975845518521965e-08
0.44400000000000034;1562715477.0;1543515477.0;6.0;4799.99841734539;4799.99871734539;5.999980839987984e-05;4.7975845518521965e-08;0.0;4.7975845518521965e-08
0.44800000000000034;1581915472.0;1562715472.0;5.0;4799.998417345262;4799.9987773451985;-5.999980839987984e-05;-3.205968823749572e-08;-83.33333333333333;83.33333330127364
0.45200000000000035;1601115466.0;1581915466.0;6.0;4799.99841734539;4799.99871734539;5.999987206450896e-05;3.205968823749572e-08;-83.33333333333333;83.33333336539302
0.45600000000000035;1620315461.0;1601115461.0;5.0;4799.998417345326;4799.998777345262;-5.999987206450896e-05;-1.6143530956469476e-08;-83.33333333333333;83.3333333171898
0.46000000000000035;1639515456.0;1620315455.0;6.0;4799.998417345262;4799.99871734539;5.999993572913809e-05;-1.5916157281026244e-08;0.0;-1.5916157281026244e-08
0.46400000000000036;1658715450.0;1639515450.0;6.0;4799.99841734539;4799.998777345326;-6.366462912410498e-11;3.205968823749572e-08;0.0;3.205968823749572e-08
0.46800000000000036;1677915445.0;1658715445.0;5.0;4799.99841734539;4799.998777345262;-5.999987206450896e-05;0.0;0.0;0.0
0.47200000000000036;1697115439.0;1677915439.0;6.0;4799.998417345262;4799.99871734539;6.000000030326191e-05;-3.205968823749572e-08;0.0;-3.205968823749572e-08
0.47600000000000037;1716315434.0;1697115434.0;5.0;4799.998417345326;4799.99877734539;-6.000012854201486e-05;1.5916157281026244e-08;0.0;1.5916157281026244e-08
0.48000000000000037;1735515429.0;1716315428.0;6.0;4799.998417345262;4799.998717345262;6.000006396789104e-05;-1.5916157281026244e-08;0.0;-1.5916157281026244e-08
0.4840000000000004;1754715423.0;1735515423.0;6.0;4799.998417345453;4799.998777345326;-6.366462912410498e-11;4.774847184307873e-08;0.0;4.774847184307873e-08
0.4880000000000004;1773915418.0;1754715418.0;5.0;4799.998417345326;4799.998777345262;-5.999980930937454e-05;-3.183231456205249e-08;0.0;-3.183231456205249e-08
0.4920000000000004;1793115412.0;1773915412.0;6.0;4799.998417345262;4799.998717345453;5.9999872974003665e-05;-1.5916157281026244e-08;0.0;-1.5916157281026244e-08
0.4960000000000004;1812315407.0;1793115407.0;5.0;4799.998417345262;4799.998777345326;-6.000006396789104e-05;0.0;0.0;0.0
0.5000000000000003;1831515401.0;1812315401.0;6.0;4799.998417345262;4799.998717345262;6.000000030326191e-05;0.0;0.0;0.0
0.5040000000000003;1850715396.0;1831515396.0;5.0;4799.99841734539;4799.998777345262;-6.000000030326191e-05;3.205968823749572e-08;0.0;3.205968823749572e-08
0.5080000000000003;1869915391.0;1850715390.0;6.0;4799.998417345453;4799.998717345262;6.000012854201486e-05;1.5688783605583012e-08;0.0;1.5688783605583012e-08
0.5120000000000003;1889115385.0;1869915385.0;6.0;4799.998417345262;4799.99877734539;6.275513442233205e-11;-4.774847184307873e-08;0.0;-4.774847184307873e-08
0.5160000000000003;1908315380.0;1889115380.0;5.0;4799.998417345262;4799.998777345453;-6.0000191297149286e-05;0.0;0.0;0.0
0.5200000000000004;1927515374.0;1908315374.0;6.0;4799.99841734539;4799.998717345262;6.000000030326191e-05;3.205968823749572e-08;0.0;3.205968823749572e-08
0.5240000000000004;1946715369.0;1927515369.0;5.0;4799.998417345262;4799.998777345262;-5.999987206450896e-05;-3.205968823749572e-08;0.0;-3.205968823749572e-08
