Zeit[sec];Sollposition[°];Istposition[°];Positionsschleppfehler[°];Sollgeschwindigkeit[°/s];Istgeschwindigkeit[°/s];Geschwindigkeitsdifferenz[°/s];Sollbeschleunigung[°/s*s];Istbeschleunigung[°/s*s];Beschleunigungsdifferenz[°/s*s]
0.0;0.0;-4.0;4.0;-0.0;0.00023999999999999998;0.0;0.0;0.0;0.0
0.004;0.0;-4.0;4.0;-0.0;0.00023999999999999998;0.0;0.0;0.0;0.0
0.008;0.0;-4.0;4.0;-0.0;0.00023999999999999998;0.0;0.0;0.0;0.0
0.012;0.0;-4.0;4.0;-0.0;0.00023999999999999998;0.0;0.0;0.0;0.0
0.016;0.0;-4.0;4.0;-0.0;0.00023999999999999998;0.0;0.0;0.0;0.0
0.02;0.0;-4.0;4.0;-0.0;0.00023999999999999998;0.0;0.0;0.0;0.0
0.024;0.0;-4.0;4.0;-0.0;0.00023999999999999998;0.0;0.0;0.0;0.0
0.028;0.0;-4.0;4.0;-0.0;0.00023999999999999998;0.0;0.0;0.0;0.0
0.032;0.0;-4.0;4.0;-0.0;0.00023999999999999998;0.0;0.0;0.0;0.0
0.036000000000000004;0.0;-4.0;4.0;-0.0;0.00023999999999999998;0.0;0.0;0.0;0.0
0.04000000000000001;0.0;-4.0;4.0;-0.0;0.00023999999999999998;0.0;0.0;0.0;0.0
0.04400000000000001;0.0;-4.0;4.0;-0.0;0.00023999999999999998;0.0;0.0;0.0;0.0
0.048000000000000015;354.0;-4.0;4.0;0.08854206895522557;0.00023999999999999998;0.0;22.135517238806393;0.0;22.135517238806393
0.05200000000000002;3883.0;-4.0;358.0;0.8823812949445379;0.00023999999999999998;0.10978206895522556;198.4598064973281;0.0;198.4598064973281
0.05600000000000002;21232.0;436.0;3447.0;4.337082992728685;0.11002206895522557;0.9791792259893122;863.6754244460367;0.0;863.6754244460367
0.060000000000000026;78574.0;4792.0;16440.0;14.335538119112446;1.0892012949445378;4.234281697784146;2499.61378159594;0.0;2499.61378159594
0.06400000000000003;224041.0;26085.0;52489.0;36.36687709748803;5.323482992728684;12.16139512638376;5507.834744593896;0.0;5507.834744593896
0.06800000000000003;528284.0;96024.0;128017.0;76.06081317785078;17.484878119112444;26.56301897837558;9923.484020090687;0.0;9923.484020090687
0.07200000000000004;1077796.0;272215.0;256069.0;137.37793902296835;44.047897097488026;47.37705608036274;15329.281461279394;166.66666666666666;15162.614794612726
0.07600000000000004;1966286.0;637914.0;439882.0;222.12245971892077;91.42495317785077;72.34590584511758;21186.130173988106;333.3333333333333;20852.79684065477
0.08000000000000004;3290304.0;1292997.0;673289.0;331.004548531836;163.77085902296835;98.7489406959524;27220.52220322881;833.3333333333334;26387.18886989548
0.08400000000000005;5148135.0;2343076.0;947228.0;464.4576656171835;262.51979971892075;125.31842881291527;33363.279271336876;1333.3333333333333;32029.945938003544
0.08800000000000005;7636708.0;3894428.0;1253707.0;622.1431817314632;387.838228531836;151.8418570853475;39421.379028569914;2166.6666666666665;37254.71236190325
0.09200000000000005;10845399.0;6053148.0;1583560.0;802.1727217531978;539.6800856171835;177.47669611427966;45007.385005433665;3083.3333333333335;41924.05167210033
0.09600000000000006;14850306.0;8921775.0;1923624.0;1001.2267029323947;717.1567817314632;200.4333800217346;49763.49529479921;4250.0;45513.49529479921
0.10000000000000006;19710771.0;12592135.0;2258171.0;1215.1161085435288;917.5901617531978;219.12680117919683;53472.35140278352;5666.666666666667;47805.68473611685
0.10400000000000006;25467447.0;17139002.0;2571769.0;1439.1690429225857;1136.7169629323946;232.70528561113406;56013.23359476424;7166.666666666667;48846.56692809758
0.10800000000000007;32142877.0;22616690.0;2850757.0;1668.8574147729184;1369.4222485435287;240.792214379057;57422.09296258318;8916.666666666666;48505.42629591651
0.11200000000000007;39745516.0;29057547.0;3085330.0;1900.6595447241536;1610.2144629225857;243.76275185033273;57950.5324878088;10750.0;47200.5324878088
0.11600000000000008;48275493.0;36473455.0;3272061.0;2132.4943012016283;1853.9772147729184;243.00598995123505;57958.68911936867;12583.333333333334;45375.35578603534
0.12000000000000008;57729669.0;44861387.0;3414106.0;2363.5438149902543;2096.9832047241534;240.3574564774749;57762.378447156494;14500.0;43262.378447156494
0.12400000000000008;68104771.0;54210749.0;3518920.0;2593.7753457748663;2337.3406612016283;237.33835378862614;57557.882696153;16333.333333333334;41224.54936281967
0.12800000000000009;79398671.0;64509465.0;3595306.0;2823.474907415178;2574.6790149902545;234.81469078461168;57424.89041007798;18250.0;39174.89041007798
0.1320000000000001;91609704.0;75747439.0;3651232.0;3052.7580993121906;2809.493705774866;233.05512164031188;57320.79797425308;20083.333333333332;37237.46464091975
0.1360000000000001;104732877.0;87917634.0;3692070.0;3280.793139092916;3042.548827415178;231.73347189701235;57008.759945181395;21916.666666666668;35092.09327851473
0.1400000000000001;118753635.0;101014763.0;3718114.0;3505.1892232060845;3274.2822993121904;229.59767978072568;56099.0210282921;23833.333333333332;32265.687694958768
0.1440000000000001;133642729.0;115030282.0;3723353.0;3722.2733599258154;3503.879979092916;224.7104241131683;54271.034179932714;25583.333333333332;28687.70084659938
0.1480000000000001;149353694.0;129944643.0;3698086.0;3927.740985663912;3728.5904032060844;215.56811671973082;51366.90643452414;27416.666666666668;23950.23976785747
0.1520000000000001;165821871.0;145721277.0;3632417.0;4117.044104685724;3944.158519925815;201.5274857380964;47325.779755453026;29083.333333333332;18242.446422119694
0.1560000000000001;182965561.0;162304021.0;3517850.0;4285.92245669173;4145.686005663912;182.42909902181236;42219.58800150151;30833.333333333332;11386.254668168174
0.16000000000000011;200690095.0;179616481.0;3349080.0;4431.133109032328;4328.115104685724;158.75215200600633;36302.66308514956;32333.333333333332;3969.329751816229
0.16400000000000012;218893282.0;197563950.0;3126145.0;4550.796548116612;4486.86725669173;131.83455234059784;29915.85977107093;33750.0;-3834.1402289290727
0.16800000000000012;237470833.0;216038757.0;2854525.0;4644.387657472704;4618.701809032328;103.36623908428373;23397.777339022923;34916.666666666664;-11518.889327643741
0.17200000000000013;256322565.0;234927029.0;2543804.0;4712.932714637608;4722.068048116612;74.94784935609187;17136.2642912261;36000.0;-18863.7357087739
0.17600000000000013;275359292.0;254115092.0;2207473.0;4759.181532349827;4797.015897472704;48.3651971649042;11562.204428054656;36833.333333333336;-25271.12890527868
0.18000000000000013;294507685.0;273496616.0;1862676.0;4787.097990842084;4845.381094637608;25.560997712218523;6979.1146230643335;37416.666666666664;-30437.55204360233
0.18400000000000014;313712258.0;292980384.0;1527301.0;4801.143121779048;4870.942092349826;7.793958492257843;3511.282734240922;37750.0;-34238.71726575908
0.18800000000000014;332935904.0;312495328.0;1216930.0;4805.911208307066;4878.736050842084;-4.577129063036409;1192.0216320045256;38000.0;-36807.97836799547
0.19200000000000014;352158504.0;331991963.0;943941.0;4805.649770445963;4874.158921779048;-11.611253471982309;-65.35946527560554;38083.333333333336;-38148.69279860894
0.19600000000000015;371372796.0;351442153.0;716351.0;4803.572834960829;4862.547668307066;-13.916837861102067;-519.2338712836317;38000.0;-38519.233871283635
0.20000000000000015;390578950.0;370836676.0;536120.0;4801.538149099048;4848.6308304459635;-12.890795485134731;-508.6714654453317;37833.333333333336;-38342.00479877867
0.20400000000000015;409779952.0;390179636.0;399314.0;4800.250299838925;4835.740034960829;-10.243045861780956;-321.9623150307598;37500.0;-37821.96231503076
0.20800000000000016;428978801.0;409481623.0;298329.0;4799.712025264068;4825.496989099048;-7.346949260123438;-134.56864371414667;37000.0;-37134.56864371415
0.21200000000000016;448177400.0;428754223.0;224578.0;4799.649444480275;4818.150039838924;-4.963334574856162;-15.645195948309265;36333.333333333336;-36348.978529281645
0.21600000000000016;467376526.0;448006969.0;170431.0;4799.781390006176;4813.186705264068;-3.3114007837939425;32.9863814752116;35500.0;-35467.01361852479
0.22000000000000017;486576242.0;467246470.0;130056.0;4799.9287286956405;4809.875304480274;-2.290554474098826;36.83467236623983;34583.333333333336;-34546.498660967096
0.22400000000000017;505776320.0;486476809.0;99433.0;4800.01924198176;4807.584750006175;-1.6900413105349799;22.628321529964524;33250.0;-33227.37167847004
0.22800000000000017;524976517.0;505700387.0;75933.0;4800.049146326247;4805.8947086956405;-1.3194867138799964;7.476086121641856;31916.666666666668;-31909.190580545026
0.23200000000000018;544176686.0;524918687.0;57830.0;4800.0420297555265;4804.5752219817605;-1.056275655513673;-1.7791426801068155;30333.333333333332;-30335.11247601344
0.23600000000000018;563376777.0;544132762.0;43924.0;4800.022433565086;4803.518946326247;-0.8414765707202605;-4.899047610024354;28666.666666666668;-28671.565714276694
0.24000000000000019;582576799.0;563343471.0;33306.0;4800.005319287011;4802.6774697555265;-0.6566761904405212;-4.278569518874065;26833.333333333332;-26837.611902852208
0.2440000000000002;601776783.0;582551554.0;25245.0;4799.99580942324;4802.020793565086;-0.5007742780753688;-2.3774659427999723;24916.666666666668;-24919.044132609466
0.2480000000000002;620976756.0;601757634.0;19149.0;4799.993025554722;4801.520019287011;-0.3752698637708818;-0.6959671293316205;23000.0;-23000.69596712933
0.25200000000000017;640176733.0;620962212.0;14544.0;4799.994007966855;4801.14474942324;-0.2790838685177732;0.24560303313592158;21083.333333333332;-21083.087730300198
0.25600000000000017;659376719.0;640165674.0;11059.0;4799.99611088523;4800.865665554722;-0.20811758786749124;0.5257295938463358;19250.0;-19249.474270406154
0.2600000000000002;678576711.0;659368304.0;8415.0;4799.997842685024;4800.6575479668545;-0.15653708162426483;0.43294994839016;17416.666666666668;-17416.233716718278
0.2640000000000002;697776707.0;678570308.0;6403.0;4799.99875306981;4800.50101088523;-0.11898820020633138;0.22759619650969398;15583.333333333334;-15583.105737136824
0.2680000000000002;716976704.0;697771836.0;4871.0;4799.998982467845;4800.382022685024;-0.09100961521380668;0.05734950877922529;13750.0;-13749.94265049122
0.2720000000000002;736176700.0;716973000.0;3704.0;4799.99885205156;4800.29101306981;-0.06979060196499631;-0.032604071293462766;11916.666666666666;-11916.69927073796
0.2760000000000002;755376695.0;736173884.0;2816.0;4799.998629815625;4800.221222467845;-0.05341041628526;-0.05555898383136082;10166.666666666666;-10166.722225650497
0.2800000000000002;774576690.0;755374555.0;2140.0;4799.998458093445;4800.16781205156;-0.04078223593569419;-0.042930544850605656;8333.333333333334;-8333.376263878185
0.2840000000000002;793776685.0;774575063.0;1627.0;4799.99837369689;4800.127029815624;-0.03095172217945219;-0.021099138848512666;6750.0;-6750.0210991388485
0.2880000000000002;812976679.0;793775447.0;1238.0;4799.998357103269;4800.096078093445;-0.023424396555128624;-0.00414840519624704;5166.666666666667;-5166.670815071863
0.2920000000000002;832176673.0;812975737.0;942.0;4799.998374017872;4800.07265369689;-0.01777659362051054;0.0042286508232791675;3750.0;-3749.9957713491767
0.2960000000000002;851376668.0;832175956.0;717.0;4799.998397678208;4800.054877103269;-0.013483085396728711;0.00591508387515205;2500.0;-2499.994084916125
0.3000000000000002;870576662.0;851376121.0;547.0;4799.998414784566;4800.041394017872;-0.010176339664212719;0.004276589606888592;1500.0;-1499.995723410393
0.3040000000000002;889776657.0;870576245.0;417.0;4799.998422598807;4800.031217678208;-0.007782893641888222;0.001953560285983258;750.0;-749.998046439714
0.3080000000000002;908976652.0;889776338.0;319.0;4799.998423659459;4800.023434784566;-0.005872185758562409;0.0002651629529282218;83.33333333333333;-83.3330681703804
0.3120000000000002;928176646.0;908976408.0;244.0;4799.998421615952;4800.017562598808;-0.004498939348195563;-0.0005108768164063804;-333.3333333333333;333.3328224565169
0.3160000000000002;947376641.0;928176460.0;186.0;4799.998419134101;4800.0130636594595;-0.003482043507574417;-0.0006204627425177023;-500.0;499.9993795372575
0.32000000000000023;966576635.0;947376498.0;143.0;4799.998417447168;4800.009581615952;-0.0025824818512774073;-0.0004217331479594577;-583.3333333333334;583.3329116001854
0.32400000000000023;985776630.0;966576525.0;110.0;4799.9984167355815;4800.006999134101;-0.0019816869325950393;-0.00017789670891943388;-583.3333333333334;583.3331554366245
0.32800000000000024;1004976625.0;985776545.0;85.0;4799.9984166904815;4800.005017447168;-0.0015007115862317733;-1.1275005817878991e-05;-500.0;499.9999887249942
0.33200000000000024;1024176619.0;1004976559.0;66.0;4799.998416928387;4800.003516735582;-0.0011400451003282797;5.947640602244064e-05;-333.3333333333333;333.33339280973934
0.33600000000000024;1043376614.0;1024176568.0;51.0;4799.9984171859805;4800.0023766904815;-0.0008997620943773654;6.439836397476029e-05;-250.0;250.00006439836397
0.34000000000000025;1062576608.0;1043376573.0;41.0;4799.99841735086;4800.001476928387;-0.000599742406848236;4.121989150007721e-05;-250.0;250.0000412198915
0.34400000000000025;1081776603.0;1062576576.0;32.0;4799.998417414312;4800.00087718598;-0.0005398351204348728;1.5862951840972528e-05;-166.66666666666666;166.6666825296185
0.34800000000000025;1100976597.0;1081776577.0;26.0;4799.9984174126585;4800.00033735086;-0.0003599365481932182;-4.133653419557959e-07;-83.33333333333333;83.33333291996799
0.35200000000000026;1120176592.0;1100976576.0;21.0;4799.998417385624;4799.999977414312;-0.000300001653158688;-6.758682502550073e-06;-83.33333333333333;83.33332657465083
0.35600000000000026;1139376587.0;1120176574.0;18.0;4799.99841735932;4799.9996774126585;-0.00018002703473030124;-6.575874067493714e-06;-83.33333333333333;83.33332675745926
0.36000000000000026;1158576581.0;1139376571.0;16.0;4799.998417343163;4799.999497385624;-0.0001200263031932991;-4.0392933442490175e-06;-83.33333333333333;83.33332929403998
0.36400000000000027;1177776576.0;1158576568.0;13.0;4799.998417337629;4799.9993773593205;-0.00018001615717366803;-1.383568815072067e-06;0.0;-1.383568815072067e-06
0.36800000000000027;1196976570.0;1177776564.0;12.0;4799.998417338393;4799.999197343163;-6.00055345785222e-05;1.9099388737231493e-07;0.0;1.9099388737231493e-07
0.3720000000000003;1216176565.0;1196976560.0;10.0;4799.998417341573;4799.999137337629;-0.00011999923572147964;7.951257430249825e-07;0.0;7.951257430249825e-07
0.3760000000000003;1235376560.0;1216176556.0;9.0;4799.998417344181;4799.999017338393;-5.9996819800289813e-05;6.518803274957463e-07;0.0;6.518803274957463e-07
0.3800000000000003;1254576554.0;1235376551.0;9.0;4799.998417345708;4799.998957341573;2.6075213099829853e-09;3.8176040106918663e-07;0.0;3.8176040106918663e-07
0.3840000000000003;1273776549.0;1254576546.0;8.0;4799.998417346089;4799.998957344181;-5.999847326165764e-05;9.526957001071423e-08;0.0;9.526957001071423e-08
0.3880000000000003;1292976543.0;1273776541.0;8.0;4799.998417346026;4799.9988973457075;3.8107828004285693e-10;-1.5688783605583012e-08;0.0;-1.5688783605583012e-08
0.3920000000000003;1312176538.0;1292976536.0;7.0;4799.998417345644;4799.998897346089;-6.0000062148901634e-05;-9.549694368615746e-08;0.0;-9.549694368615746e-08
0.3960000000000003;1331376532.0;1312176531.0;7.0;4799.998417345518;4799.998837346026;-3.8198777474462986e-10;-3.1604940886609256e-08;0.0;-3.1604940886609256e-08
0.4000000000000003;1350576527.0;1331376526.0;6.0;4799.998417345262;4799.9988373456445;-6.000012672302546e-05;-6.389200279954821e-08;0.0;-6.389200279954821e-08
0.4040000000000003;1369776522.0;1350576521.0;6.0;4799.998417345136;4799.998777345518;-2.5556801119819283e-10;-3.1604940886609256e-08;0.0;-3.1604940886609256e-08
0.4080000000000003;1388976516.0;1369776516.0;6.0;4799.99841734539;4799.998777345262;-1.2641976354643703e-10;6.366462912410498e-08;0.0;6.366462912410498e-08
0.4120000000000003;1408176511.0;1388976511.0;5.0;4799.998417345262;4799.998777345136;-5.999974564474542e-05;-3.205968823749572e-08;0.0;-3.205968823749572e-08
0.4160000000000003;1427376505.0;1408176505.0;6.0;4799.998417345326;4799.99871734539;5.999987206450896e-05;1.5916157281026244e-08;0.0;1.5916157281026244e-08
0.4200000000000003;1446576500.0;1427376500.0;5.0;4799.998417345262;4799.998777345262;-5.999993663863279e-05;-1.5916157281026244e-08;0.0;-1.5916157281026244e-08
0.4240000000000003;1465776494.0;1446576494.0;6.0;4799.998417345518;4799.9987173453255;5.999993663863279e-05;6.389200279954821e-08;0.0;6.389200279954821e-08
0.4280000000000003;1484976489.0;1465776489.0;5.0;4799.9984173451985;4799.998777345262;-5.9999744735250715e-05;-7.980816008057445e-08;0.0;-7.980816008057445e-08
0.43200000000000033;1504176484.0;1484976483.0;6.0;4799.998417345262;4799.998717345517;5.999968107062159e-05;1.5916157281026244e-08;0.0;1.5916157281026244e-08
0.43600000000000033;1523376478.0;1504176478.0;6.0;4799.99841734539;4799.9987773451985;6.366462912410498e-11;3.205968823749572e-08;0.0;3.205968823749572e-08
0.44000000000000034;1542576473.0;1523376473.0;5.0;4799.9984173451985;4799.998777345262;-5.999987206450896e-05;-4.7975845518521965e-08;0.0;-4.7975845518521965e-08
0.44400000000000034;1561776467.0;1542576467.0;6.0;4799.998417345453;4799.99871734539;5.999980839987984e-05;6.366462912410498e-08;0.0;6.366462912410498e-08
0.44800000000000034;1580976462.0;1561776462.0;5.0;4799.998417345326;4799.9987773451985;-5.999974564474542e-05;-3.183231456205249e-08;-83.33333333333333;83.33333330150101
0.45200000000000035;1600176457.0;1580976456.0;6.0;4799.998417345262;4799.998717345453;5.9999872974003665e-05;-1.5916157281026244e-08;-83.33333333333333;83.33333331741717
0.45600000000000035;1619376451.0;1600176451.0;6.0;4799.998417345326;4799.998777345326;-6.366462912410498e-11;1.5916157281026244e-08;-83.33333333333333;83.33333334924949
0.46000000000000035;1638576446.0;1619376446.0;5.0;4799.998417345453;4799.998777345262;-5.999993663863279e-05;3.183231456205249e-08;0.0;3.183231456205249e-08
0.46400000000000036;1657776440.0;1638576440.0;6.0;4799.998417345262;4799.9987173453255;6.000012763252016e-05;-4.774847184307873e-08;0.0;-4.774847184307873e-08
0.46800000000000036;1676976435.0;1657776435.0;5.0;4799.998417345326;4799.998777345453;-6.0000191297149286e-05;1.5916157281026244e-08;0.0;1.5916157281026244e-08
0.47200000000000036;1696176429.0;1676976429.0;6.0;4799.998417345262;4799.998717345262;6.000006396789104e-05;-1.5916157281026244e-08;0.0;-1.5916157281026244e-08
0.47600000000000037;1715376424.0;1696176424.0;5.0;4799.998417345453;4799.998777345326;-6.000006396789104e-05;4.774847184307873e-08;0.0;4.774847184307873e-08
0.48000000000000037;1734576419.0;1715376418.0;6.0;4799.998417345326;4799.998717345262;6.0000191297149286e-05;-3.183231456205249e-08;0.0;-3.183231456205249e-08
0.4840000000000004;1753776413.0;1734576413.0;6.0;4799.998417345262;4799.998777345453;-1.2732925824820995e-10;-1.5916157281026244e-08;0.0;-1.5916157281026244e-08
0.4880000000000004;1772976408.0;1753776408.0;5.0;4799.998417345326;4799.998777345326;-6.000006396789104e-05;1.5916157281026244e-08;0.0;1.5916157281026244e-08
0.4920000000000004;1792176402.0;1772976402.0;6.0;4799.998417345262;4799.998717345262;6.000006396789104e-05;-1.5916157281026244e-08;0.0;-1.5916157281026244e-08
0.4960000000000004;1811376397.0;1792176397.0;5.0;4799.99841734539;4799.998777345326;-6.000006396789104e-05;3.205968823749572e-08;0.0;3.205968823749572e-08
0.5000000000000003;1830576392.0;1811376391.0;6.0;4799.998417345262;4799.998717345262;6.000012854201486e-05;-3.205968823749572e-08;0.0;-3.205968823749572e-08
0.5040000000000003;1849776386.0;1830576386.0;6.0;4799.998417345262;4799.99877734539;-1.2823875294998288e-10;0.0;0.0;0.0
0.5080000000000003;1868976381.0;1849776381.0;5.0;4799.9984173455805;4799.998777345262;-6.000000030326191e-05;7.958078640513122e-08;0.0;7.958078640513122e-08
0.5120000000000003;1888176375.0;1868976375.0;6.0;4799.998417345262;4799.998717345262;6.0000318626407534e-05;-7.958078640513122e-08;0.0;-7.958078640513122e-08
0.5160000000000003;1907376370.0;1888176370.0;5.0;4799.998417345262;4799.9987773455805;-6.0000318626407534e-05;0.0;0.0;0.0
0.5200000000000004;1926576364.0;1907376364.0;6.0;4799.998417345262;4799.998717345262;6.000000030326191e-05;0.0;0.0;0.0
0.5240000000000004;1945776359.0;1926576359.0;5.0;4799.998417345262;4799.998777345262;-6.000000030326191e-05;0.0;0.0;0.0
