Zeit[sec];Sollposition[°];Istposition[°];Positionsschleppfehler[°];Sollgeschwindigkeit[°/s];Istgeschwindigkeit[°/s];Geschwindigkeitsdifferenz[°/s];Sollbeschleunigung[°/s*s];Istbeschleunigung[°/s*s];Beschleunigungsdifferenz[°/s*s]
0.0;0.0;2.0;-2.0;1.896920280551158e-24;-0.000192;0.0;-7.978223532906339e-21;0.0;-7.978223532906339e-21
0.004;0.0;2.0;-2.0;-1.1493105229221719e-23;-0.000192;0.0;-3.3475063774432193e-21;0.0;-3.3475063774432193e-21
0.008;0.0;2.0;-2.0;-1.2385773596539909e-23;-0.000192;0.0;-2.231670918295476e-22;0.0;-2.231670918295476e-22
0.012;0.0;2.0;-2.0;-7.922431759948952e-24;-0.000192;0.0;1.1158354591477394e-21;0.0;1.1158354591477394e-21
0.016;0.0;2.0;-2.0;-3.012755739698897e-24;-0.000192;0.0;1.2274190050625136e-21;0.0;1.2274190050625136e-21
0.02;0.0;2.0;-2.0;5.579177295738698e-26;-0.000192;0.0;7.671368781640711e-22;0.0;7.671368781640711e-22
0.024;0.0;2.0;-2.0;1.3390025509772878e-24;-0.000192;0.0;3.208026945049752e-22;0.0;3.208026945049752e-22
0.028;0.0;2.0;-2.0;1.2274190050625137e-24;-0.000192;0.0;-2.7895886478693536e-23;0.0;-2.7895886478693536e-23
0.032;0.0;2.0;-2.0;8.36876594360805e-25;-0.000192;0.0;-9.763560267542718e-23;0.0;-9.763560267542718e-23
0.036000000000000004;0.0;2.0;-2.0;2.7895886478693492e-25;-0.000192;0.0;-1.3947943239346752e-22;0.0;-1.3947943239346752e-22
0.04000000000000001;0.0;2.0;-2.0;-5.579177295738698e-26;-0.000192;0.0;-8.368765943608048e-23;0.0;-8.368765943608048e-23
0.04400000000000001;0.0;2.0;-2.0;-1.6737531887216098e-25;-0.000192;0.0;-2.7895886478693495e-23;0.0;-2.7895886478693495e-23
0.048000000000000015;0.0;2.0;-2.0;-1.6737531887216098e-25;-0.000192;0.0;0.0;0.0;0.0
0.05200000000000002;-213.0;2.0;-2.0;-0.05333970777301971;-0.000192;0.0;-13.334926943254928;0.0;-13.334926943254928
0.05600000000000002;-2339.0;2.0;-215.0;-0.5315660789507997;-0.000192;-0.07378770777301971;-119.55659279444498;0.0;-119.55659279444498
0.060000000000000026;-59047.0;-293.0;-2046.0;-14.177025213910385;-0.07397970777301971;-0.65400237117778;-3411.364783739896;0.0;-3411.364783739896
0.06400000000000003;-179211.0;-3204.0;-55843.0;-30.0408509328461;-0.7279820789507997;-18.809971134959586;-3965.9564297339293;0.0;-3965.9564297339293
0.06800000000000003;-426875.0;-81355.0;-97856.0;-61.916139688392555;-19.537953213910384;-19.897073718935715;-7968.822188886614;0.0;-7968.822188886614
0.07200000000000004;-845172.0;-239095.0;-187780.0;-104.57428042193607;-39.4350269328461;-40.507992755546454;-10664.535183385879;-83.33333333333333;-10581.201850052545
0.07600000000000004;-1434171.0;-558867.0;-286305.0;-147.24976382371423;-79.94301968839255;-52.1165407335435;-10668.870850444542;-333.3333333333333;-10335.537517111208
0.08000000000000004;-2194018.0;-1087105.0;-347066.0;-189.9616412051312;-132.05956042193606;-48.508539401778194;-10677.969345354242;-666.6666666666666;-10011.302678687576
0.08400000000000005;-3173983.0;-1809377.0;-384641.0;-244.99134588853326;-180.56809982371425;-46.319077381416946;-13757.426170850515;-1083.3333333333333;-12674.09283751718
0.08800000000000005;-4447722.0;-2716925.0;-457058.0;-318.43470979819944;-226.8871772051312;-61.98173668340206;-18360.840977416545;-1416.6666666666667;-16944.174310749877
0.09200000000000005;-6084304.0;-3872400.0;-575322.0;-409.14527678619436;-288.86891388853326;-84.79670790966617;-22677.641746998732;-1833.3333333333333;-20844.308413665396
0.09600000000000006;-8137150.0;-5367062.0;-717242.0;-513.2114702277299;-373.6656217981994;-104.33488698799493;-26016.548360383895;-2250.0;-23766.548360383895
0.10000000000000006;-10648767.0;-7279064.0;-858086.0;-627.9043755075353;-478.00050878619436;-117.58721744153559;-28673.22631995134;-2916.6666666666665;-25756.559653284672
0.10400000000000006;-13651533.0;-9661414.0;-987353.0;-750.6914689501943;-595.58772622773;-127.10253727980535;-30696.773360664763;-3750.0;-26946.773360664763
0.10800000000000007;-17168221.0;-12552175.0;-1099358.0;-879.1719358942464;-722.6902635075353;-133.53957344265905;-32120.116736013017;-4750.0;-27370.116736013017
0.11200000000000007;-21215479.0;-15977094.0;-1191127.0;-1011.8145363585918;-856.2298369501943;-137.29029094405212;-33160.65011608634;-5666.666666666667;-27493.983449419677
0.11600000000000008;-25805557.0;-19951174.0;-1264305.0;-1147.5192500811033;-993.5201278942465;-139.66768846434536;-33926.178430627886;-6666.666666666667;-27259.511763961218
0.12000000000000008;-30946302.0;-24483925.0;-1321632.0;-1285.1862173332881;-1133.1878163585918;-141.20810572251162;-34416.7418130462;-7750.0;-26666.741813046203
0.12400000000000008;-36641601.0;-29581508.0;-1364794.0;-1423.82469927655;-1274.3959220811034;-141.8105192521848;-34659.62048581548;-8916.666666666666;-25742.953819148814
0.12800000000000009;-42892531.0;-35246333.0;-1395268.0;-1562.732519680139;-1416.2064413332882;-141.56398594326174;-34726.95510089721;-10000.0;-24726.955100897216
0.1320000000000001;-49698697.0;-41477414.0;-1415117.0;-1701.541367343637;-1557.77042727655;-140.81332440358892;-34702.2119158745;-11083.333333333334;-23618.878582541165
0.1360000000000001;-57059264.0;-48271749.0;-1426948.0;-1840.141567137562;-1698.583751680139;-139.94462366349808;-34650.0499484813;-12166.666666666666;-22483.38328181463
0.1400000000000001;-64973525.0;-55625862.0;-1433402.0;-1978.5653274602696;-1838.528375343637;-139.21978379392522;-34605.940080676875;-13250.0;-21355.940080676875
0.1440000000000001;-73441083.0;-63536854.0;-1436671.0;-2116.8894032510584;-1977.7481591375622;-138.73758432270733;-34581.0189476972;-14333.333333333334;-20247.68561436387
0.1480000000000001;-82461803.0;-72002796.0;-1438287.0;-2255.1798639156214;-2116.4857434602695;-138.47921179078867;-34572.615166140735;-15416.666666666666;-19155.94849947407
0.1520000000000001;-92035700.0;-81022655.0;-1439148.0;-2393.474054431868;-2254.964955251058;-138.37311666456299;-34573.547629061635;-16500.0;-18073.547629061635
0.1560000000000001;-102162837.0;-90596007.0;-1439693.0;-2531.7841981869487;-2393.338071915621;-138.34651051624678;-34577.53593877021;-17583.333333333332;-16994.20260543688
0.16000000000000011;-112843271.0;-100722745.0;-1440092.0;-2670.1082819814906;-2531.684582431868;-138.348447755081;-34581.02094863546;-18666.666666666668;-15914.354281968786
0.16400000000000012;-124077030.0;-111402877.0;-1440394.0;-2808.4397093633706;-2670.033030186949;-138.35307579454184;-34582.85684547002;-19833.333333333332;-14749.523512136686
0.16800000000000012;-135864122.0;-122636421.0;-1440609.0;-2946.7727905959023;-2808.386105981491;-138.3520673818798;-34583.27030813291;-20916.666666666668;-13666.603641466241
0.17200000000000013;-148202529.0;-134423373.0;-1440749.0;-3084.60162211268;-2946.7381733633706;-138.3465212325318;-34457.20787919447;-22000.0;-12457.20787919447
0.17600000000000013;-161084533.0;-146763711.0;-1438818.0;-3220.5008962373286;-3085.0846945959024;-137.64345551677752;-33974.8185311621;-23000.0;-10974.8185311621
0.18000000000000013;-174496804.0;-159654623.0;-1429910.0;-3353.067471548138;-3222.72815011268;-135.0441061246488;-33141.64382770241;-24083.333333333332;-9058.310494369078
0.18400000000000014;-188420771.0;-173085712.0;-1411092.0;-3480.9917428568992;-3357.7722562373287;-130.76004731080957;-31981.067827190258;-25166.666666666668;-6814.401160523591
0.18800000000000014;-202828555.0;-187039841.0;-1380930.0;-3601.9456423777597;-3488.5323035481383;-125.02871930876108;-30238.474880215108;-26250.0;-3988.474880215108
0.19200000000000014;-217682259.0;-201494085.0;-1334470.0;-3713.425948196309;-3613.5610228568994;-116.49373952086034;-27870.076454637343;-27250.0;-620.0764546373421
0.19600000000000015;-232937961.0;-216414304.0;-1267955.0;-3813.9251925932126;-3730.0547623777597;-105.09486581854935;-25124.811099225895;-28166.666666666668;3041.8555674407735
0.20000000000000015;-248547591.0;-231754902.0;-1183059.0;-3902.4073563040506;-3835.149628196309;-92.34922839690353;-22120.5409277095;-28916.666666666668;6796.125738957169
0.20400000000000015;-264458639.0;-247464897.0;-1082694.0;-3977.761764300644;-3927.4988565932126;-78.84712371083788;-18838.601999148297;-29500.0;10661.398000851705
0.20800000000000016;-280616346.0;-263490280.0;-968359.0;-4039.426640979756;-4006.3459803040505;-64.37824799659347;-15416.21916977806;-30000.0;14583.78083022194
0.21200000000000016;-296968477.0;-279773176.0;-843170.0;-4088.0326407926964;-4070.724228300644;-49.64673267911212;-12151.499953235088;-30250.0;18098.50004676491
0.21600000000000016;-313466640.0;-296254659.0;-713818.0;-4124.540502072872;-4120.370960979756;-36.18820781294016;-9126.96532004395;-30416.666666666668;21289.701346622718
0.22000000000000017;-330067071.0;-312880895.0;-585745.0;-4150.107528250081;-4156.559168792696;-24.212853280176205;-6391.756544302098;-30333.333333333332;23941.576789031235
0.22400000000000017;-346735385.0;-329603983.0;-463088.0;-4167.078434652232;-4180.7720220728725;-13.791954177208027;-4242.726600537935;-30166.666666666668;25923.940066128733
0.22800000000000017;-363447524.0;-346382238.0;-353147.0;-4178.034328364118;-4194.5639762500805;-6.416570402151592;-2738.9734279713593;-29666.666666666668;26927.69323869531
0.23200000000000018;-380185752.0;-363186160.0;-261364.0;-4184.556850374734;-4200.980546652232;-2.1447257118852576;-1630.6305026539576;-28916.666666666668;27286.03616401271
0.23600000000000018;-396936662.0;-379998661.0;-187091.0;-4187.727362695908;-4203.125272364117;0.6076859893837536;-792.6280802935253;-28083.333333333332;27290.705253039807
0.24000000000000019;-413691357.0;-396808731.0;-127931.0;-4188.673494531726;-4202.517586374734;2.508847678825987;-236.53295895451265;-27166.666666666668;26930.133707712157
0.2440000000000002;-430445194.0;-413608765.0;-82592.0;-4188.459135384422;-4200.008738695908;3.4064121641822567;53.589786826023555;-26166.666666666668;26220.256453492693
0.2480000000000002;-447196677.0;-430395174.0;-50020.0;-4187.870545473735;-4196.602326531725;3.3412711473038144;147.1474776717514;-25083.333333333332;25230.480811005084
0.25200000000000017;-463946052.0;-447168218.0;-28459.0;-4187.343522081897;-4193.2610553844215;2.658445910687078;131.75584795931172;-23916.666666666668;24048.422514625978
0.25600000000000017;-480694162.0;-463930628.0;-15424.0;-4187.027308918371;-4190.602609473734;1.7783833918374512;79.05329088157487;-22833.333333333332;22912.38662421491
0.2600000000000002;-497441781.0;-480685924.0;-8238.0;-4186.90448218612;-4188.824226081897;1.0060691635262629;30.70668306281732;-21666.666666666668;21697.373349729485
0.2640000000000002;-514189373.0;-497437196.0;-4585.0;-4186.897891581855;-4187.818156918371;0.47351473225080554;1.6476510661505017;-20583.333333333332;20584.98098439948
0.2680000000000002;-530937115.0;-514186574.0;-2799.0;-4186.93518834933;-4187.34464218612;0.1780466042646367;-9.324191868699927;-19416.666666666668;19407.342474797966
0.2720000000000002;-547685006.0;-530935240.0;-1875.0;-4186.972749227997;-4187.166595581855;0.05140723252497992;-9.390219666784105;-18333.333333333332;18323.943113666548
0.2760000000000002;-564432985.0;-547683700.0;-1306.0;-4186.9944180103685;-4187.11518834933;0.01706312133319443;-5.417195592826829;-17250.0;17244.582804407175
0.2800000000000002;-581180988.0;-564432092.0;-893.0;-4187.000667533076;-4187.098125227997;0.017979217628635524;-1.5623806768871873;-16166.666666666666;16165.104285989779
0.2840000000000002;-597928981.0;-581180412.0;-576.0;-4186.9980589199795;-4187.0801460103685;0.024182477292015392;0.652153274131706;-15083.333333333334;15083.985486607466
0.2880000000000002;-614676953.0;-597928635.0;-346.0;-4186.992830562864;-4187.0559635330765;0.024688613097168854;1.3070892789528443;-14000.0;14001.307089278953
0.2920000000000002;-631424909.0;-614676760.0;-193.0;-4186.988563578453;-4187.031274919979;0.019916357116017025;1.0667461026514502;-12916.666666666666;12917.733412769318
0.2960000000000002;-648172855.0;-631424805.0;-104.0;-4186.986338776854;-4187.011358562863;0.012810984409952653;0.556200399842055;-11833.333333333334;11833.889533733176
0.3000000000000002;-664920799.0;-648172799.0;-56.0;-4186.985800022682;-4186.998547578453;0.00683280159955757;0.1346885428574751;-10750.0;10750.134688542857
0.3040000000000002;-681668744.0;-664920765.0;-34.0;-4186.986150320424;-4186.991714776854;0.0026507541715545813;-0.08757443538343068;-9750.0;9749.912425564617
0.3080000000000002;-698416692.0;-681668721.0;-23.0;-4186.986725642619;-4186.989064022682;0.0007057022585286177;-0.14383054872268985;-8666.666666666666;8666.522836117943
0.3120000000000002;-715164641.0;-698416674.0;-18.0;-4186.987173484457;-4186.988358320424;-9.532219519314822e-05;-0.11196045966244128;-7583.333333333333;7583.221372873671
0.3160000000000002;-731912592.0;-715164627.0;-14.0;-4186.987402978518;-4186.988453642619;-6.384183870977722e-05;-0.05737351511925226;-6416.666666666667;6416.609293151548
0.32000000000000023;-748660542.0;-731912581.0;-11.0;-4186.987463019858;-4186.988517484458;5.850593970535556e-05;-0.015010335118859075;-5416.666666666667;5416.651656331548
0.32400000000000023;-765408493.0;-748660534.0;-8.0;-4186.987439157805;-4186.988458978518;0.0002279586597069283;0.0059655133100022795;-4500.0;4500.00596551331
0.32800000000000024;-782156443.0;-765408486.0;-7.0;-4186.987398195712;-4186.988231019858;0.00011986205299763242;0.010240523351967568;-3666.6666666666665;3666.6769071900185
0.33200000000000024;-798904394.0;-782156438.0;-5.0;-4186.987373426156;-4186.988111157805;0.00023296209383261157;0.006192388809722615;-2833.3333333333335;2833.339525722143
0.33600000000000024;-815652344.0;-798904389.0;-5.0;-4186.987371822623;-4186.987878195711;2.476955523889046e-05;0.0004008834366686642;-2000.0;2000.0004008834367
0.34000000000000025;-832400294.0;-815652340.0;-4.0;-4186.987387171889;-4186.987853426156;9.760353350429796e-05;-0.003837316626231768;-1416.6666666666667;1416.6628293500405
0.34400000000000025;-849148245.0;-832400291.0;-3.0;-4186.987410447303;-4186.987755822623;8.065073325269623e-05;-0.005818853423988912;-916.6666666666666;916.6608478132426
0.34800000000000025;-865896195.0;-849148241.0;-4.0;-4186.9874350329965;-4186.987675171889;-0.00011927541345357895;-0.0061464234022423625;-583.3333333333334;583.3271869099311
0.35200000000000026;-882644146.0;-865896192.0;-3.0;-4186.987457860375;-4186.987794447303;7.141430614865385e-05;-0.005706844603992067;-250.0;249.994293155396
0.35600000000000026;-899392096.0;-882644142.0;-4.0;-4186.987478472362;-4186.987723032997;-0.00011882737817359157;-0.005152996891411021;-83.33333333333333;83.32818033644192
0.36000000000000026;-916140047.0;-899392093.0;-3.0;-4186.987497630977;-4186.987841860375;7.538801219197921e-05;-0.004789653530679061;0.0;-0.004789653530679061
0.36400000000000027;-932887998.0;-916140044.0;-3.0;-4186.987516285398;-4186.987766472363;-1.9158614122716244e-05;-0.004663605295718298;83.33333333333333;-83.33799693862905
0.36800000000000027;-949635949.0;-932887995.0;-3.0;-4186.987535088662;-4186.987785630977;-1.8654421182873193e-05;-0.0047008161345729604;83.33333333333333;-83.3380341494679
0.3720000000000003;-966383900.0;-949635946.0;-3.0;-4186.987554320425;-4186.987804285398;-1.8803264538291842e-05;-0.004807940740647609;166.66666666666666;-166.6714746074073
0.3760000000000003;-983131851.0;-966383897.0;-3.0;-4186.987574001763;-4186.9878230886625;-1.9231762962590437e-05;-0.00492033450427698;83.33333333333333;-83.3382536678376
0.3800000000000003;-999879802.0;-983131848.0;-3.0;-4186.987594043067;-4186.987842320425;-1.968133801710792e-05;-0.005010325821785955;83.33333333333333;-83.33834365915511
0.3840000000000003;-1016627754.0;-999879799.0;-3.0;-4186.987614345088;-4186.9878620017635;-2.004130328714382e-05;-0.005075505441709538;0.0;-0.005075505441709538
0.3880000000000003;-1033375705.0;-1016627750.0;-4.0;-4186.987634843315;-4186.987882043067;-0.00011630202152446145;-0.0051245567647129064;0.0;-0.0051245567647129064
0.3920000000000003;-1050123656.0;-1033375701.0;-4.0;-4186.987655512338;-4186.987998345088;-2.0498227058851626e-05;-0.005167255721971742;0.0;-0.005167255721971742
0.3960000000000003;-1066871608.0;-1050123653.0;-3.0;-4186.987676351499;-4186.988018843315;7.533097686973633e-05;-0.005209790288063232;0.0;-0.005209790288063232
0.4000000000000003;-1083619559.0;-1066871604.0;-4.0;-4186.987697370911;-4186.9879435123385;-0.00011683916090987623;-0.0052548527946783;0.0;-0.0052548527946783
0.4040000000000003;-1100367511.0;-1083619556.0;-3.0;-4186.987718579806;-4186.988060351499;7.49805885789101e-05;-0.005302223826220143;83.33333333333333;-83.33863555715955
0.4080000000000003;-1117115463.0;-1100367507.0;-4.0;-4186.987739984122;-4186.987985370911;-0.00011720889506250387;-0.005351078925741604;83.33333333333333;-83.33868441225907
0.4120000000000003;-1133863415.0;-1117115459.0;-4.0;-4186.987761585617;-4186.988102579806;-2.1404315702966414e-05;-0.005400373765951372;83.33333333333333;-83.33873370709928
0.4160000000000003;-1150611367.0;-1133863411.0;-4.0;-4186.987783383348;-4186.988123984122;-2.1601495063805487e-05;-0.005449432819659705;0.0;-0.005449432819659705
0.4200000000000003;-1167359319.0;-1150611363.0;-4.0;-4186.987805375968;-4186.988145585617;-2.179773127863882e-05;-0.005498154905581032;0.0;-0.005498154905581032
0.4240000000000003;-1184107271.0;-1167359315.0;-4.0;-4186.9878275613055;-4186.988167383348;-2.1992619622324128e-05;-0.005546334477912751;0.0;-0.005546334477912751
0.4280000000000003;-1200855223.0;-1184107267.0;-4.0;-4186.987849938672;-4186.9881893759675;-2.2185337911651004e-05;-0.005594341700998484;0.0;-0.005594341700998484
0.43200000000000033;-1217603175.0;-1200855219.0;-4.0;-4186.987872507187;-4186.988211561305;-2.2377366803993937e-05;-0.005642128598992713;0.0;-0.005642128598992713
0.43600000000000033;-1234351128.0;-1217603171.0;-4.0;-4186.987895266411;-4186.988233938672;-2.256851439597085e-05;-0.005689806130249053;0.0;-0.005689806130249053
0.44000000000000034;-1251099080.0;-1234351124.0;-4.0;-4186.9879182159675;-4186.988256507187;-2.2759224520996213e-05;-0.005737389074056409;0.0;-0.005737389074056409
0.44400000000000034;-1267847033.0;-1251099077.0;-3.0;-4186.987941355731;-4186.988279266411;7.305044346139766e-05;-0.00578494086767023;0.0;-0.00578494086767023
0.44800000000000034;-1284594985.0;-1267847029.0;-4.0;-4186.987964684195;-4186.988206215968;-0.00011913976322830422;-0.0058321159031038405;0.0;-0.0058321159031038405
0.45200000000000035;-1301342938.0;-1284594982.0;-3.0;-4186.987988201669;-4186.988325355731;7.267153614520794e-05;-0.005879368700334453;0.0;-0.005879368700334453
0.45600000000000035;-1318090891.0;-1301342935.0;-3.0;-4186.988011907468;-4186.988252684195;-2.3517474801337812e-05;-0.00592644960306643;0.0;-0.00592644960306643
0.46000000000000035;-1334838844.0;-1318090888.0;-3.0;-4186.988035800772;-4186.98827620167;-2.3705798412265722e-05;-0.005973326096864184;0.0;-0.005973326096864184
0.46400000000000036;-1351586797.0;-1334838841.0;-3.0;-4186.988059881267;-4186.988299907468;-2.3893304387456737e-05;-0.0060201236919965595;0.0;-0.0060201236919965595
0.46800000000000036;-1368334750.0;-1351586794.0;-3.0;-4186.988084148011;-4186.988323800772;-2.4080494767986238e-05;-0.006066685955374851;0.0;-0.006066685955374851
0.47200000000000036;-1385082703.0;-1368334747.0;-3.0;-4186.988108601067;-4186.988347881267;-2.4266743821499404e-05;-0.006113264134910423;0.0;-0.006113264134910423
0.47600000000000037;-1401830657.0;-1385082700.0;-3.0;-4186.988133238992;-4186.988372148011;-2.4453056539641693e-05;-0.006159481245049392;0.0;-0.006159481245049392
0.48000000000000037;-1418578610.0;-1401830653.0;-4.0;-4186.988158061532;-4186.9883966010675;-0.00012063792473782087;-0.006205634917932912;0.0;-0.006205634917932912
0.4840000000000004;-1435326563.0;-1418578607.0;-3.0;-4186.988183068311;-4186.988517238992;7.117746008589165e-05;-0.006251694685488474;0.0;-0.006251694685488474
0.4880000000000004;-1452074517.0;-1435326560.0;-3.0;-4186.988208258827;-4186.988446061532;-2.5006778741953894e-05;-0.006297629170148866;0.0;-0.006297629170148866
0.4920000000000004;-1468822471.0;-1452074513.0;-4.0;-4186.988233631823;-4186.988471068311;-0.00012119051643821876;-0.0063432489696424454;0.0;-0.0063432489696424454
