Zeit[sec];Sollposition[°];Istposition[°];Positionsschleppfehler[°];Sollgeschwindigkeit[°/s];Istgeschwindigkeit[°/s];Geschwindigkeitsdifferenz[°/s];Sollbeschleunigung[°/s*s];Istbeschleunigung[°/s*s];Beschleunigungsdifferenz[°/s*s]
0.0;0.0;2.0;-2.0;-0.0;-0.000192;0.0;0.0;0.0;0.0
0.004;0.0;2.0;-2.0;-0.0;-0.000192;0.0;0.0;0.0;0.0
0.008;0.0;2.0;-2.0;-0.0;-0.000192;0.0;0.0;0.0;0.0
0.012;0.0;2.0;-2.0;-0.0;-0.000192;0.0;0.0;0.0;0.0
0.016;0.0;2.0;-2.0;-0.0;-0.000192;0.0;0.0;0.0;0.0
0.02;0.0;2.0;-2.0;-0.0;-0.000192;0.0;0.0;0.0;0.0
0.024;0.0;2.0;-2.0;-0.0;-0.000192;0.0;0.0;0.0;0.0
0.028;0.0;2.0;-2.0;-0.0;-0.000192;0.0;0.0;0.0;0.0
0.032;0.0;2.0;-2.0;-0.0;-0.000192;0.0;0.0;0.0;0.0
0.036000000000000004;0.0;2.0;-2.0;-0.0;-0.000192;0.0;0.0;0.0;0.0
0.04000000000000001;0.0;2.0;-2.0;-0.0;-0.000192;0.0;0.0;0.0;0.0
0.04400000000000001;0.0;2.0;-2.0;-0.0;-0.000192;0.0;0.0;0.0;0.0
0.048000000000000015;0.0;2.0;-2.0;-0.0;-0.000192;0.0;0.0;0.0;0.0
0.05200000000000002;-357.0;2.0;-2.0;-0.08939374929168857;-0.000192;0.0;-22.34843732292214;0.0;-22.34843732292214
0.05600000000000002;-3921.0;2.0;-359.0;-0.890868862572395;-0.000192;-0.12366574929168858;-200.3687783201766;0.0;-200.3687783201766
0.060000000000000026;-98186.0;-493.0;-3428.0;-23.566415113351123;-0.12385774929168858;-1.0960991132807063;-5668.886562694682;0.0;-5668.886562694682
0.06400000000000003;-297581.0;-5372.0;-92814.0;-49.848597608775364;-1.2199568625723949;-31.256602250778727;-6570.54562385606;0.0;-6570.54562385606
0.06800000000000003;-701696.0;-135278.0;-162303.0;-101.02895558455582;-32.47655911335112;-32.95312649542425;-12795.089493945114;-83.33333333333333;-12711.75616061178
0.07200000000000004;-1346284.0;-396996.0;-304700.0;-161.14696691412743;-65.42968560877537;-64.85046997578044;-15029.502832392904;-250.0;-14779.502832392904
0.07600000000000004;-2220999.0;-918116.0;-428168.0;-218.67860307476755;-130.2801555845558;-71.97093932957162;-14382.90904016003;-583.3333333333334;-13799.575706826696
0.08000000000000004;-3387736.0;-1727120.0;-493879.0;-291.68429938967506;-202.25109491412744;-63.83989216064012;-18251.42407872688;-1000.0;-17251.42407872688
0.08400000000000005;-4964353.0;-2791483.0;-596253.0;-394.1543138109721;-266.09098707476755;-82.83360031490753;-25617.50360532426;-1500.0;-24117.50360532426
0.08800000000000005;-7072080.0;-4187181.0;-777172.0;-526.9315383401663;-348.9245873896751;-119.83823842129704;-33194.30613229855;-2083.3333333333335;-31110.972798965216
0.09200000000000005;-9806592.0;-6062232.0;-1009848.0;-683.6279947651234;-468.7628258109721;-155.11412052919422;-39174.11410623927;-2833.3333333333335;-36340.78077290594
0.09600000000000006;-13245378.0;-8557739.0;-1248853.0;-859.6966067127917;-623.8769463401663;-179.6409364249571;-44017.15298691707;-3750.0;-40267.15298691707
0.10000000000000006;-17455767.0;-11771810.0;-1473568.0;-1052.5971034586523;-803.5178827651234;-197.64125194766825;-48225.12418646517;-4916.666666666667;-43308.457519798496
0.10400000000000006;-22491199.0;-15776446.0;-1679321.0;-1258.8578474803865;-1001.1591347127917;-212.65278474586057;-51565.186005433534;-6333.333333333333;-45231.8526721002
0.10800000000000007;-28389706.0;-20631693.0;-1859506.0;-1474.6266706143142;-1213.8119194586523;-223.55850402173428;-53942.205783481935;-7916.666666666667;-46025.53911681527
0.11200000000000007;-35176416.0;-26381174.0;-2008532.0;-1696.6774416044336;-1437.3704234803865;-230.07531913392768;-55512.69274752986;-9583.333333333334;-45929.35941419652
0.11600000000000008;-42861514.0;-33050956.0;-2125460.0;-1921.2745263973177;-1667.4457426143142;-233.27585899011933;-56149.27119822102;-11250.0;-44899.27119822102
0.12000000000000008;-51440371.0;-40653842.0;-2207672.0;-2144.714027369639;-1900.7216016044335;-232.48943679288413;-55859.87524308035;-13000.0;-42859.87524308035
0.12400000000000008;-60893162.0;-49186686.0;-2253685.0;-2363.197700086923;-2133.2110383973177;-227.85674897232138;-54620.918179320935;-14833.333333333334;-39787.58484598761
0.12800000000000009;-71178472.0;-58630957.0;-2262205.0;-2571.3273023921047;-2361.067787369639;-219.3015927172837;-52032.40057629546;-16666.666666666668;-35365.73390962879
0.1320000000000001;-82234584.0;-68952434.0;-2226038.0;-2764.0280325408207;-2580.369380086923;-204.6575703051817;-48175.18253717901;-18416.666666666668;-29758.515870512343
0.1360000000000001;-93988884.0;-80092541.0;-2142043.0;-2938.5747794119243;-2785.0269503921045;-184.63721014871635;-43636.68671777589;-20083.333333333332;-23553.353384442555
0.1400000000000001;-106362063.0;-91971197.0;-2017687.0;-3093.2946392112835;-2969.664160540821;-162.60857087110344;-38679.964949839814;-21666.666666666668;-17013.298283173146
0.1440000000000001;-119267511.0;-104500287.0;-1861776.0;-3226.361743383099;-3132.2727314119243;-139.7524037993594;-33266.77604295389;-23166.666666666668;-10100.109376287226
0.1480000000000001;-132614027.0;-117588387.0;-1679124.0;-3336.6289728688043;-3272.0251352112837;-115.5325121718156;-27566.80737142631;-24416.666666666668;-3150.1407047596394
0.1520000000000001;-146312346.0;-131138617.0;-1475410.0;-3424.5796638290603;-3387.5576473830993;-90.7106854857052;-21987.672740064;-25500.0;3512.3272599360007
0.1560000000000001;-160277312.0;-145051690.0;-1260656.0;-3491.24122161116;-3478.2683328688045;-67.33430696025607;-16665.389445524965;-26416.666666666668;9751.277221141703
0.16000000000000011;-174431005.0;-159234100.0;-1043212.0;-3538.423125020441;-3545.6026398290605;-45.78693378209982;-11795.475852320236;-27166.666666666668;15371.190814346432
0.16400000000000012;-188712445.0;-173599658.0;-831347.0;-3570.3597507319855;-3591.3895736111604;-26.842863409280653;-7984.1564278860915;-27666.666666666668;19682.510238780575
0.16800000000000012;-203078964.0;-188072587.0;-639858.0;-3591.629669129802;-3618.232437020441;-13.553681711544414;-5317.4795994541455;-28000.0;22682.520400545854
0.17200000000000013;-217498318.0;-202599731.0;-479233.0;-3604.8383383193745;-3631.7861187319854;-5.849918397816509;-3302.1672973931118;-28166.666666666668;24864.499369273555
0.17600000000000013;-231945190.0;-217150275.0;-348043.0;-3611.7177529418423;-3637.636037129802;-0.6144291895725473;-1719.8536556169302;-28333.333333333332;26613.4796777164
0.18000000000000013;-246402061.0;-231703276.0;-241914.0;-3614.217516949767;-3638.2504663193745;3.3089693775323212;-624.9410019811421;-28416.666666666668;27791.725664685524
0.18400000000000014;-260859145.0;-246243041.0;-159020.0;-3614.2708036174035;-3634.941496941842;5.458059992075505;-13.32166690917802;-28416.666666666668;28403.34499975749
0.18800000000000014;-275312652.0;-260760974.0;-98171.0;-3613.3767049172957;-3629.4834369497667;5.788217332363274;223.52467502696527;-28416.666666666668;28640.191341693633
0.19200000000000014;-289762380.0;-275255754.0;-56898.0;-3612.4318320822717;-3623.6952196174034;4.85630670010778;236.21820875598587;-28333.333333333332;28569.551542089317
0.19600000000000015;-304209591.0;-289731109.0;-31271.0;-3611.8025976036774;-3618.8389129172956;3.40506483502395;157.30861964857468;-28250.0;28407.308619648575
0.20000000000000015;-318655668.0;-304192844.0;-16747.0;-3611.518928426675;-3615.4338480822717;2.0235384785942188;70.91729425064841;-28000.0;28070.91729425065
0.20400000000000015;-333101537.0;-318646485.0;-9183.0;-3611.467170971121;-3613.4103096036774;1.0098131770027976;12.939363888449407;-27666.666666666668;27679.60603055512
0.20800000000000016;-347547612.0;-333096086.0;-5451.0;-3611.518558736989;-3612.4004964266746;0.41002945555374026;-12.846941466932549;-27166.666666666668;27153.819725199734
0.21200000000000016;-361993956.0;-347544047.0;-3565.0;-3611.585922940908;-3611.990466971121;0.12966823413216844;-16.84105097979227;-26666.666666666668;26649.825615686874
0.21600000000000016;-376440480.0;-361991490.0;-2466.0;-3611.630772970175;-3611.8607987369887;0.03813979608094087;-11.212507316713527;-26083.333333333332;26072.120826016617
0.22000000000000017;-390887072.0;-376438780.0;-1700.0;-3611.6478752820894;-3611.822658940908;0.02868597073302226;-4.275577978660294;-25416.666666666668;25412.391088688008
0.22400000000000017;-405333660.0;-390885955.0;-1117.0;-3611.6466545134717;-3611.7939729701748;0.03886568808547963;0.30519215442836867;-24416.666666666668;24416.971858821096
0.22800000000000017;-419780214.0;-405332975.0;-685.0;-3611.6383670539963;-3611.7551072820893;0.04269276861759863;2.0718648688671237;-23250.0;23252.071864868867
0.23200000000000018;-434226736.0;-419779824.0;-390.0;-3611.630435467917;-3611.7124145134717;0.0366074594753627;1.9828965198485093;-21916.666666666668;21918.64956318652
0.23600000000000018;-448673240.0;-434226527.0;-209.0;-3611.625767681016;-3611.6758070539963;0.025307586079634348;1.1669467252204413;-20416.666666666668;20417.83361339189
0.24000000000000019;-463119738.0;-448673128.0;-112.0;-3611.62428898132;-3611.6504994679167;0.01397978690056334;0.36967492394524015;-18750.0;18750.369674923946
0.2440000000000002;-477566237.0;-463119674.0;-64.0;-3611.62473932215;-3611.636519681016;0.00608669969597031;-0.11258520748924639;-16916.666666666668;16916.55408145918
0.2480000000000002;-492012742.0;-477566195.0;-42.0;-3611.6258654457224;-3611.63043298132;0.0016616591701676953;-0.28153089306215406;-15166.666666666666;15166.385135773604
0.25200000000000017;-506459250.0;-492012710.0;-32.0;-3611.6269009681823;-3611.62877132215;-0.0001661235723986465;-0.258880614978807;-13333.333333333334;13333.074452718356
0.25600000000000017;-520905761.0;-506459225.0;-25.0;-3611.627571657541;-3611.6289374457224;-0.00036352245979287545;-0.1676723396712987;-11583.333333333334;11583.165660993662
0.2600000000000002;-535352273.0;-520905742.0;-19.0;-3611.6279070746546;-3611.629300968182;-9.46893587752129e-05;-0.08385427838675241;-9750.0;9749.916145721614
0.2640000000000002;-549798786.0;-535352259.0;-14.0;-3611.628047246787;-3611.629395657541;0.0001445828866053489;-0.03504303310819523;-8083.333333333333;8083.298290300225
0.2680000000000002;-564245299.0;-549798776.0;-10.0;-3611.6281222599164;-3611.6292510746543;0.00024382786750720697;-0.01875328234746121;-6500.0;6499.9812467176525
0.2720000000000002;-578691813.0;-564245292.0;-7.0;-3611.628207800858;-3611.629007246787;0.00021298687033777242;-0.02138523541361792;-5083.333333333333;5083.311948097919
0.2760000000000002;-593138327.0;-578691807.0;-6.0;-3611.628328416704;-3611.6287942599165;1.045905855789897e-05;-0.030153961461110157;-3833.3333333333335;3833.3031793718724
0.2800000000000002;-607584841.0;-593138322.0;-5.0;-3611.6284786500673;-3611.628783800858;-2.4615846086817328e-05;-0.0375583408640523;-2750.0;2749.962441659136
0.2840000000000002;-622031357.0;-607584837.0;-4.0;-3611.6286431487133;-3611.628808416704;-5.423336324383854e-05;-0.04112466149308602;-1833.3333333333333;1833.2922086718402
0.2880000000000002;-636477872.0;-622031352.0;-5.0;-3611.6288085602014;-3611.6288626500673;-0.00026049864618471474;-0.041352872017341724;-1083.3333333333333;1083.291980461316
0.2920000000000002;-650924389.0;-636477868.0;-4.0;-3611.6289675199564;-3611.6291231487135;-6.941148785699625e-05;-0.03973993875661108;-583.3333333333334;583.2935933945768
0.2960000000000002;-665370906.0;-650924384.0;-5.0;-3611.6291179234877;-3611.6291925602013;-0.000254959755238815;-0.03760088281978824;-250.0;249.9623991171802
0.3000000000000002;-679817424.0;-665370901.0;-5.0;-3611.6292605907324;-3611.6294475199566;-0.00015040353127915296;-0.03566681118627457;0.0;-0.03566681118627457
0.3040000000000002;-694263942.0;-679817419.0;-5.0;-3611.6293971925;-3611.629597923488;-0.0001426672447450983;-0.03415044193388894;166.66666666666666;-166.70081710860055
0.3080000000000002;-708710461.0;-694263937.0;-5.0;-3611.6295290892585;-3611.6297405907326;-0.00013660176773555577;-0.03297418959391507;250.0;-250.03297418959392
0.3120000000000002;-723156980.0;-708710456.0;-5.0;-3611.629656985552;-3611.6298771925003;-0.00013189675837566028;-0.03197407340849168;166.66666666666666;-166.69864074007515
0.3160000000000002;-737603500.0;-723156976.0;-4.0;-3611.629781046053;-3611.6300090892587;-3.1896293421596056e-05;-0.03101512515968352;166.66666666666666;-166.69768179182634
0.32000000000000023;-752050020.0;-737603496.0;-4.0;-3611.6299011516917;-3611.630040985552;-0.00012406050063873408;-0.030026409717720526;83.33333333333333;-83.36335974305105
0.32400000000000023;-766496541.0;-752050016.0;-4.0;-3611.6300171126713;-3611.6301650460528;-0.0001201056388708821;-0.028990244913984498;166.66666666666666;-166.69565691158064
0.32800000000000024;-780943062.0;-766496537.0;-4.0;-3611.630128781469;-3611.6302851516916;-0.00011596097965593799;-0.02791719941797055;83.33333333333333;-83.3612505327513
0.33200000000000024;-795389584.0;-780943058.0;-4.0;-3611.630236081731;-3611.6304011126713;-0.0001116687976718822;-0.026825065447155794;83.33333333333333;-83.36015839878048
0.33600000000000024;-809836106.0;-795389580.0;-4.0;-3611.630338992351;-3611.630512781469;-0.00010730026178862317;-0.0257276550428287;0.0;-0.0257276550428287
0.34000000000000025;-824282628.0;-809836102.0;-4.0;-3611.6304375193286;-3611.6306200817307;-0.0001029106201713148;-0.024631744395264832;0.0;-0.024631744395264832
0.34400000000000025;-838729151.0;-824282624.0;-4.0;-3611.6305316748185;-3611.630722992351;-9.852697758105933e-05;-0.023538872483186424;0.0;-0.023538872483186424
0.34800000000000025;-853175674.0;-838729147.0;-4.0;-3611.630621465291;-3611.6308215193285;-9.41554899327457e-05;-0.02244761810743512;0.0;-0.02244761810743512
0.35200000000000026;-867622198.0;-853175670.0;-4.0;-3611.6307068896463;-3611.6309156748184;-8.979047242974048e-05;-0.021356088836910203;0.0;-0.021356088836910203
0.35600000000000026;-882068722.0;-867622194.0;-4.0;-3611.6307879419483;-3611.631005465291;-8.542435534764081e-05;-0.02026307549840567;0.0;-0.02026307549840567
0.36000000000000026;-896515246.0;-882068718.0;-4.0;-3611.6308646127754;-3611.631090889646;-8.105230199362268e-05;-0.01916770679599722;0.0;-0.01916770679599722
0.36400000000000027;-910961770.0;-896515242.0;-4.0;-3611.630936893207;-3611.631171941948;-7.667082718398888e-05;-0.018070107898893184;0.0;-0.018070107898893184
0.36800000000000027;-925408295.0;-910961766.0;-4.0;-3611.631004774606;-3611.6312486127754;-7.228043159557274e-05;-0.016970349747680302;0.0;-0.016970349747680302
0.3720000000000003;-939854820.0;-925408291.0;-4.0;-3611.631068249654;-3611.631320893207;-6.788139899072121e-05;-0.015868762034187966;0.0;-0.015868762034187966
0.3760000000000003;-954301345.0;-939854816.0;-4.0;-3611.6311273114734;-3611.631388774606;-6.347504813675187e-05;-0.014765454807275091;0.0;-0.014765454807275091
0.3800000000000003;-968747871.0;-954301341.0;-4.0;-3611.6311819534053;-3611.631452249654;-5.9061819229100365e-05;-0.013660482977684296;0.0;-0.013660482977684296
0.3840000000000003;-983194396.0;-968747867.0;-4.0;-3611.6312321690116;-3611.6315113114733;-5.4641931910737185e-05;-0.012553901569845038;0.0;-0.012553901569845038
0.3880000000000003;-997640922.0;-983194393.0;-3.0;-3611.6312779519158;-3611.6315659534052;4.5784393478243146e-05;-0.011445726045167248;0.0;-0.011445726045167248
0.3920000000000003;-1012087448.0;-997640919.0;-3.0;-3611.6313192958987;-3611.6315201690118;-4.578290418066899e-05;-0.010335995739296777;0.0;-0.010335995739296777
0.3960000000000003;-1026533974.0;-1012087445.0;-3.0;-3611.631356194429;-3611.631565951916;-4.134398295718711e-05;-0.00922463254937611;0.0;-0.00922463254937611
0.4000000000000003;-1040980500.0;-1026533971.0;-3.0;-3611.6313886415064;-3611.631607295899;-3.689853019750444e-05;-0.008111769375318545;0.0;-0.008111769375318545
0.4040000000000003;-1055427027.0;-1040980497.0;-3.0;-3611.6314166307557;-3611.631644194429;-3.244707750127418e-05;-0.006997312311796122;0.0;-0.006997312311796122
0.4080000000000003;-1069873553.0;-1055427023.0;-4.0;-3611.6314401561776;-3611.6316766415066;-0.0001239892490048078;-0.005881355491510476;0.0;-0.005881355491510476
0.4120000000000003;-1084320080.0;-1069873550.0;-3.0;-3611.631459211742;-3611.6318006307556;7.24745777915814e-05;-0.004763891070069803;0.0;-0.004763891070069803
0.4160000000000003;-1098766606.0;-1084320076.0;-4.0;-3611.631473791953;-3611.631728156178;-0.00011505556403790251;-0.003645052743195265;0.0;-0.003645052743195265
0.4200000000000003;-1113213133.0;-1098766603.0;-3.0;-3611.6314838907165;-3611.631843211742;8.141978878484224e-05;-0.0025246908990084194;0.0;-0.0025246908990084194
0.4240000000000003;-1127659660.0;-1113213130.0;-3.0;-3611.631489502725;-3611.631761791953;-1.0098763596033677e-05;-0.001403002102051687;0.0;-0.001403002102051687
0.4280000000000003;-1142106186.0;-1127659657.0;-3.0;-3611.6314906223874;-3611.6317718907167;-5.612008408206748e-06;-0.000279915639112005;0.0;-0.000279915639112005
0.43200000000000033;-1156552713.0;-1142106184.0;-2.0;-3611.631487243957;-3611.631777502725;9.488033765592263e-05;0.0008446075980828027;0.0;0.0008446075980828027
0.43600000000000033;-1170999239.0;-1156552710.0;-3.0;-3611.631479362691;-3611.6316826223874;-9.262156982003944e-05;0.001970316475308209;0.0;0.001970316475308209
0.44000000000000034;-1185445766.0;-1170999237.0;-2.0;-3611.6314669729354;-3611.6317752439572;0.00010388126611360349;0.0030974389346738462;0.0;0.0030974389346738462
0.44400000000000034;-1199892292.0;-1185445763.0;-3.0;-3611.6314500696026;-3611.631671362691;-8.361024447367527e-05;0.004225833208693075;0.0;0.004225833208693075
0.44800000000000034;-1214338819.0;-1199892290.0;-2.0;-3611.6314286482952;-3611.6317549729356;0.00011290333304714295;0.005355326834433072;0.0;0.005355326834433072
0.45200000000000035;-1228785345.0;-1214338816.0;-3.0;-3611.6314027030453;-3611.6316420696025;-7.457869287463836e-05;0.006486312486231327;0.0;0.006486312486231327
0.45600000000000035;-1243231871.0;-1228785342.0;-3.0;-3611.631372229708;-3611.6317166482954;2.5945249944925308e-05;0.007618334279868577;0.0;0.007618334279868577
0.46000000000000035;-1257678397.0;-1243231868.0;-3.0;-3611.631337223823;-3611.6316907030455;3.047333711947431e-05;0.008751471341383876;0.0;0.008751471341383876
0.46400000000000036;-1272124923.0;-1257678394.0;-3.0;-3611.6312976803642;-3611.6316602297084;3.5005885365535505e-05;0.009885864642456;0.0;0.009885864642456
0.46800000000000036;-1286571449.0;-1272124920.0;-3.0;-3611.6312535949355;-3611.631625223823;3.9543458569824e-05;0.011021357181562053;0.0;0.011021357181562053
0.47200000000000036;-1301017974.0;-1286571446.0;-3.0;-3611.6312049633284;-3611.6315856803644;4.408542872624821e-05;0.012157901778664382;0.0;0.012157901778664382
0.47600000000000037;-1315464500.0;-1301017972.0;-2.0;-3611.6311517809563;-3611.6315415949357;0.00014463160732702818;0.013295593021211971;0.0;0.013295593021211971
0.48000000000000037;-1329911025.0;-1315464497.0;-3.0;-3611.6310940438;-3611.6313969633284;-4.2817628127522767e-05;0.014434289028031344;0.0;0.014434289028031344
0.4840000000000004;-1344357550.0;-1329911022.0;-3.0;-3611.631031747838;-3611.6314397809565;5.7737156112125376e-05;0.015573990594930365;0.0;0.015573990594930365
0.4880000000000004;-1358804074.0;-1344357547.0;-3.0;-3611.6309648891774;-3611.6313820438004;6.229596237972146e-05;0.016714665093786607;0.0;0.016714665093786607
0.4920000000000004;-1373250598.0;-1358804072.0;-2.0;-3611.6308934639846;-3611.631319747838;0.00016285866058751708;0.017856298200058518;0.0;0.017856298200058518
0.4960000000000004;-1387697122.0;-1373250596.0;-2.0;-3611.6308174676133;-3611.6311568891774;7.142519280023407e-05;0.01899909284475143;0.0;0.01899909284475143
0.5000000000000003;-1402143646.0;-1387697120.0;-2.0;-3611.630736897863;-3611.6310854639846;7.599637137900572e-05;0.02014243762005208;0.0;0.02014243762005208
0.5040000000000003;-1416590169.0;-1402143644.0;-2.0;-3611.6306517506514;-3611.6310094676132;8.056975048020831e-05;0.021286802848408115;0.0;0.021286802848408115
0.5080000000000003;-1431036692.0;-1416590167.0;-2.0;-3611.63056202221;-3611.6309288978628;8.514721139363246e-05;0.02243211031327519;0.0;0.02243211031327519
0.5120000000000003;-1445483215.0;-1431036690.0;-2.0;-3611.630467709209;-3611.6308437506514;8.972844125310075e-05;0.023578250306854898;0.0;0.023578250306854898
