Zeit[sec];Sollposition[°];Istposition[°];Positionsschleppfehler[°];Sollgeschwindigkeit[°/s];Istgeschwindigkeit[°/s];Geschwindigkeitsdifferenz[°/s];Sollbeschleunigung[°/s*s];Istbeschleunigung[°/s*s];Beschleunigungsdifferenz[°/s*s]
0.0;0.0;2.0;-2.0;1.1158354591477397e-25;-0.000192;0.0;7.810848214034178e-22;0.0;7.810848214034178e-22
0.004;0.0;2.0;-2.0;1.2832107780199006e-24;-0.000192;0.0;2.9290680802628167e-22;0.0;2.9290680802628167e-22
0.008;0.0;2.0;-2.0;1.2832107780199006e-24;-0.000192;0.0;0.0;0.0;0.0
0.012;0.0;2.0;-2.0;7.252930484460308e-25;-0.000192;0.0;-1.3947943239346747e-22;0.0;-1.3947943239346747e-22
0.016;0.0;2.0;-2.0;2.7895886478693492e-25;-0.000192;0.0;-1.1158354591477396e-22;0.0;-1.1158354591477396e-22
0.02;0.0;2.0;-2.0;-0.0;-0.000192;0.0;-6.973971619673374e-23;0.0;-6.973971619673374e-23
0.024;0.0;2.0;-2.0;-1.1158354591477397e-25;-0.000192;0.0;-2.789588647869349e-23;0.0;-2.789588647869349e-23
0.028;0.0;2.0;-2.0;-1.6737531887216098e-25;-0.000192;0.0;-1.394794323934675e-23;0.0;-1.394794323934675e-23
0.032;0.0;2.0;-2.0;-5.579177295738698e-26;-0.000192;0.0;2.7895886478693495e-23;0.0;2.7895886478693495e-23
0.036000000000000004;0.0;2.0;-2.0;-0.0;-0.000192;0.0;1.3947943239346745e-23;0.0;1.3947943239346745e-23
0.04000000000000001;0.0;2.0;-2.0;-0.0;-0.000192;0.0;0.0;0.0;0.0
0.04400000000000001;0.0;2.0;-2.0;-0.0;-0.000192;0.0;0.0;0.0;0.0
0.048000000000000015;0.0;2.0;-2.0;-0.0;-0.000192;0.0;0.0;0.0;0.0
0.05200000000000002;0.0;2.0;-2.0;-0.0;-0.000192;0.0;0.0;0.0;0.0
0.05600000000000002;0.0;2.0;-2.0;-0.0;-0.000192;0.0;0.0;0.0;0.0
0.060000000000000026;-357.0;2.0;-2.0;-0.08938879116598067;-0.000192;0.0;-22.347197791495166;0.0;-22.347197791495166
0.06400000000000003;-3920.0;2.0;-359.0;-0.8908194515135176;-0.000192;-0.12366079116598067;-200.35766508688423;0.0;-200.35766508688423
0.06800000000000003;-98129.0;-493.0;-3427.0;-23.552228317982156;-0.12385279116598066;-1.095958660347537;-5665.35221661716;0.0;-5665.35221661716
0.07200000000000004;-297426.0;-5372.0;-92757.0;-49.82420287017483;-1.2198114515135177;-31.237088866468635;-6567.993638048169;0.0;-6567.993638048169
0.07600000000000004;-701364.0;-135199.0;-162227.0;-100.98455790041719;-32.456900317982154;-32.94109455219267;-12790.088757560588;-83.33333333333333;-12706.755424227256
0.08000000000000004;-1345705.0;-396790.0;-304574.0;-161.0851384136852;-65.39799487017483;-64.82566703024237;-15025.145128317003;-250.0;-14775.145128317003
0.08400000000000005;-2220034.0;-917684.0;-428021.0;-218.58230485950554;-130.2236619004172;-71.951492513268;-14374.291611455084;-583.3333333333334;-13790.958278121752
0.08800000000000005;-3386174.0;-1726384.0;-493650.0;-291.53504213175796;-202.1751544136852;-63.79755044582035;-18238.184318063104;-1000.0;-17238.184318063104
0.09200000000000005;-4961855.0;-2790274.0;-595900.0;-393.9201500343994;-265.97270485950554;-82.7687372722524;-25596.27697566036;-1500.0;-24096.27697566036
0.09600000000000006;-7068140.0;-4185239.0;-776616.0;-526.571147999385;-348.74144213175794;-119.73384390264147;-33162.74949124639;-2083.3333333333335;-31079.416157913052
0.10000000000000006;-9800528.0;-6059140.0;-1009000.0;-683.0969771719273;-468.4752860343994;-154.95986196498558;-39131.45729313558;-2833.3333333333335;-36298.12395980225
0.10400000000000006;-13236340.0;-8552880.0;-1247648.0;-858.9529205420291;-623.435147999385;-179.43603717254234;-43963.98584252546;-3750.0;-40213.98584252546
0.10800000000000007;-17442761.0;-11764364.0;-1471976.0;-1051.6051789865053;-802.8711851719273;-197.39143137010183;-48163.06461111904;-4916.666666666667;-43246.39794445237
0.11200000000000007;-22473145.0;-15765414.0;-1677347.0;-1257.596105745416;-1000.2626165420291;-212.36787444447612;-51497.73168972768;-6333.333333333333;-45164.398356394355
0.11600000000000008;-28365511.0;-20615935.0;-1857210.0;-1473.0913149401842;-1212.6304909865053;-223.25777475891073;-53873.802298692055;-7916.666666666667;-45957.13563202539
0.12000000000000008;-35145028.0;-26359488.0;-2006023.0;-1694.8792801182278;-1435.888265745416;-229.7812571947684;-55446.991294510895;-9500.0;-45946.991294510895
0.12400000000000008;-42821988.0;-33022166.0;-2122862.0;-1919.2397387667618;-1665.6695229401844;-233.00450917804346;-56090.114662133485;-11166.666666666666;-44923.44799546682
0.12800000000000009;-51391920.0;-40616862.0;-2205126.0;-2142.482990921709;-1898.6740321182278;-232.25780264853393;-55810.81303873685;-13000.0;-42810.81303873685
0.1320000000000001;-60835230.0;-49140589.0;-2251331.0;-2360.8273987069592;-2130.9318347667618;-227.67893215494723;-54586.10194631251;-14833.333333333334;-39752.76861297918
0.1360000000000001;-71110886.0;-58575032.0;-2260198.0;-2568.91392426548;-2358.610766921709;-219.19563978525002;-52021.631389630216;-16666.666666666668;-35354.964722963545
0.1400000000000001;-82157733.0;-68886257.0;-2224629.0;-2761.711651591533;-2577.806406706959;-204.6719015585213;-48199.43183151327;-18416.666666666668;-29782.765164846598
0.1440000000000001;-93903743.0;-80016170.0;-2141563.0;-2936.502364096271;-2782.4783082654803;-184.82339132605284;-43697.67812618443;-20166.666666666668;-23531.01145951776
0.1480000000000001;-106270078.0;-91885376.0;-2018367.0;-3091.583623435559;-2967.301699591533;-162.96389650473793;-38770.31483482199;-21666.666666666668;-17103.64816815532
0.1520000000000001;-119170441.0;-104406438.0;-1863640.0;-3225.0905141855183;-3130.265596096271;-140.2274673392876;-33376.72268748986;-23083.333333333332;-10293.389354156527
0.1560000000000001;-132513768.0;-117488410.0;-1682031.0;-3335.8315143722257;-3270.4930634355587;-116.0724267499595;-27685.250046676854;-24333.333333333332;-3351.916713343524
0.16000000000000011;-146210693.0;-131034671.0;-1479097.0;-3424.2312024459916;-3386.5654901855182;-91.25933618670751;-22099.922018441473;-25500.0;3400.0779815585247
0.16400000000000012;-160175798.0;-144945970.0;-1264723.0;-3491.2760618333873;-3477.8248263722257;-67.81978407376573;-16761.21484684893;-26416.666666666668;9655.45181981774
0.16800000000000012;-174330802.0;-159128548.0;-1047250.0;-3538.7507099776203;-3545.6446104459915;-46.167451387395886;-11868.662036058253;-27166.666666666668;15298.004630608415
0.17200000000000013;-188614112.0;-173495796.0;-835006.0;-3570.827444392371;-3591.8120618333874;-27.099224144233176;-8019.183603687679;-27666.666666666668;19647.483062978987
0.17600000000000013;-202982285.0;-187971441.0;-642671.0;-3592.0429764626633;-3618.9112859776205;-13.61257441475027;-5303.883017573071;-28000.0;22696.11698242693
0.18000000000000013;-217402532.0;-202501536.0;-480749.0;-3605.0617431196406;-3632.523860392371;-5.671020070292343;-3254.6916642443193;-28250.0;24995.308335755682
0.18400000000000014;-231849432.0;-217054315.0;-348217.0;-3611.724658913131;-3638.194880462663;-0.29569465697750275;-1665.728948372589;-28333.333333333332;26667.604384960745
0.18800000000000014;-246305675.0;-231608277.0;-241155.0;-3614.0606292306525;-3638.4905751196407;3.615036206509558;-583.9925793803786;-28416.666666666668;27832.67408728629
0.19200000000000014;-260761792.0;-246147779.0;-157896.0;-3614.0292368520772;-3634.875538913131;5.656893682478767;7.84809464380487;-28416.666666666668;28424.51476131047
0.19600000000000015;-275214258.0;-260664653.0;-97139.0;-3613.1161201240566;-3629.2186452306523;5.864064378575222;228.27918200516706;-28416.666666666668;28644.945848671836
0.20000000000000015;-289663012.0;-275158071.0;-56187.0;-3612.188370639093;-3623.354580852077;4.844508728020628;231.93737124086056;-28333.333333333332;28565.27070457419
0.20400000000000015;-304109355.0;-289632111.0;-30901.0;-3611.5857544112528;-3618.5100721240565;3.355205484963335;150.65405696009293;-28166.666666666668;28317.320723626763
0.20800000000000016;-318554647.0;-304092730.0;-16625.0;-3611.3227430547095;-3615.154866639093;1.9731122278403745;65.75283913582552;-28000.0;28065.752839135825
0.21200000000000016;-332999772.0;-318545457.0;-9190.0;-3611.281113994884;-3613.1817544112528;0.9767713565433951;10.407264956370454;-27666.666666666668;27677.07393162304
0.21600000000000016;-347445109.0;-332994276.0;-5496.0;-3611.3341266748307;-3612.2049830547094;0.3962530598255398;-13.253169986683133;-27250.0;27236.74683001332
0.22000000000000017;-361890705.0;-347441510.0;-3599.0;-3611.3987693367535;-3611.808729994884;0.12909932005322844;-16.16066548069739;-26666.666666666668;26650.50600118597
0.22400000000000017;-376336466.0;-361888228.0;-2477.0;-3611.4400336947465;-3611.6796306748306;0.0430693380772027;-10.316089498246583;-26083.333333333332;26073.017243835086
0.22800000000000017;-390782285.0;-376334774.0;-1692.0;-3611.4545214803707;-3611.6365613367534;0.03409564200683235;-3.621946406042298;-25333.333333333332;25329.71138692729
0.23200000000000018;-405228094.0;-390781183.0;-1102.0;-3611.452062974598;-3611.6024656947466;0.04215221437607397;0.614626443166344;-24500.0;24500.614626443166
0.23600000000000018;-419673869.0;-405227424.0;-670.0;-3611.443544435336;-3611.5603134803705;0.04393050577255053;2.1296348154464795;-23250.0;23252.129634815446
0.24000000000000019;-434119613.0;-419673489.0;-380.0;-3611.4358300146027;-3611.516382974598;0.03635853926152777;1.9286051833660167;-21916.666666666668;21918.595271850034
0.2440000000000002;-448565339.0;-434119409.0;-204.0;-3611.4314087035054;-3611.4800244353364;0.02461042073355202;1.105327774325815;-20333.333333333332;20334.43866110766
0.2480000000000002;-463011060.0;-448565230.0;-109.0;-3611.4300127181596;-3611.455414014603;0.013541311097469588;0.3489963364700088;-18750.0;18750.34899633647
0.25200000000000017;-477456782.0;-463010997.0;-63.0;-3611.430362970878;-3611.4418727035054;0.0058119853456446435;-0.08756317959068838;-17000.0;16999.91243682041
0.25600000000000017;-491902508.0;-477456741.0;-41.0;-3611.4312702194266;-3611.4360607181598;0.0017617472817619273;-0.22681213715713966;-15166.666666666666;15166.439854529508
0.2600000000000002;-506348236.0;-491902478.0;-30.0;-3611.43204317774;-3611.434298970878;0.00014875145143378177;-0.1932395783796892;-13416.666666666666;13416.473427088287
0.2640000000000002;-520793967.0;-506348214.0;-22.0;-3611.432458344919;-3611.4341502194266;-4.9583136387809645e-06;-0.10379179468600341;-11583.333333333334;11583.229541538647
0.2680000000000002;-535239698.0;-520793950.0;-17.0;-3611.432565860467;-3611.43415517774;6.48328214083449e-05;-0.02687888706986996;-9833.333333333334;9833.306454446265
0.2720000000000002;-549685429.0;-535239686.0;-12.0;-3611.4325054280976;-3611.434090344919;0.0003724844518728787;0.015108092384252814;-8083.333333333333;8083.348441425717
0.2760000000000002;-564131159.0;-549685420.0;-9.0;-3611.4323980023764;-3611.433717860467;0.0003484323692646285;0.026856430281441135;-6500.0;6500.026856430281
0.2800000000000002;-578576889.0;-564131153.0;-6.0;-3611.43230992846;-3611.4333694280976;0.00039542572130812914;0.022018479057805962;-5083.333333333333;5083.355351812391
0.2840000000000002;-593022619.0;-578576884.0;-5.0;-3611.432259948995;-3611.4329740023763;0.00018407391598884715;0.012494866268752958;-3833.3333333333335;3833.3458281996022
0.2880000000000002;-607468348.0;-593022615.0;-4.0;-3611.432240562422;-3611.4327899284604;0.00014597946528738248;0.004846643264500017;-2750.0;2750.0048466432645
0.2920000000000002;-621914078.0;-607468345.0;-3.0;-3611.43223676347;-3611.432643948995;0.00011538657281562337;0.0009497380233369768;-1833.3333333333333;1833.3342830713566
0.2960000000000002;-636359807.0;-621914075.0;-3.0;-3611.432236429352;-3611.4325285624222;3.798952093347907e-06;8.352947133971611e-05;-1083.3333333333333;1083.3334168628046
0.3000000000000002;-650805537.0;-636359805.0;-2.0;-3611.4322333251444;-3611.43252476347;9.633411809772952e-05;0.0007760519338262384;-583.3333333333334;583.3341093852672
0.3040000000000002;-665251267.0;-650805534.0;-3.0;-3611.4322259984806;-3611.432428429352;-9.28957924770657e-05;0.0018316659406991675;-166.66666666666666;166.66849833260736
0.3080000000000002;-679696996.0;-665251264.0;-3.0;-3611.432215470307;-3611.4325213251445;7.32666376279667e-06;0.0026320434471927;0.0;0.0026320434471927
0.3120000000000002;-694142726.0;-679696994.0;-2.0;-3611.4322033483672;-3611.4325139984808;0.00010652817400114145;0.003030484890587104;166.66666666666666;-166.66363618177607
0.3160000000000002;-708588455.0;-694142723.0;-3.0;-3611.432190846171;-3611.4324074703068;-8.387806065002223e-05;0.0031255490284820553;166.66666666666666;-166.66354111763818
0.32000000000000023;-723034185.0;-708588452.0;-3.0;-3611.4321785467137;-3611.4324913483674;1.2502196113928221e-05;0.0030748643666811404;250.0;-249.99692513563332
0.32400000000000023;-737479914.0;-723034181.0;-4.0;-3611.432166553892;-3611.4324788461713;-8.370054229089874e-05;0.0029982054456922924;166.66666666666666;-166.66366846122096
0.32800000000000024;-751925643.0;-737479911.0;-3.0;-3611.4321547408817;-3611.4325625467136;0.00010799282154039247;0.0029532525331887882;166.66666666666666;-166.66371341413347
0.33200000000000024;-766371373.0;-751925640.0;-3.0;-3611.4321429383604;-3611.432454553892;1.1813010132755153e-05;0.002950630346276739;83.33333333333333;-83.33038270298705
0.33600000000000024;-780817102.0;-766371369.0;-4.0;-3611.4321310265714;-3611.432442740882;-8.419747837251634e-05;0.0029779472470181645;83.33333333333333;-83.33035538608631
0.34000000000000025;-795262831.0;-780817099.0;-3.0;-3611.4321189523407;-3611.4325269383603;0.00010791178874569596;0.003018557663381216;0.0;0.003018557663381216
0.34400000000000025;-809708560.0;-795262828.0;-3.0;-3611.432106710297;-3611.4324190265716;1.2074230653524864e-05;0.0030605109486714355;0.0;0.0030605109486714355
0.34800000000000025;-824154289.0;-809708557.0;-3.0;-3611.4320943159555;-3611.432406952341;1.2242043794685742e-05;0.003098585352745431;0.0;0.003098585352745431
0.35200000000000026;-838600018.0;-824154286.0;-3.0;-3611.4320817877538;-3611.432394710297;1.2394341410981724e-05;0.0031320504376708413;0.0;0.0031320504376708413
0.35600000000000026;-853045747.0;-838600015.0;-3.0;-3611.432069138003;-3611.4323823159557;1.2528201750683365e-05;0.0031624376788386144;0.0;0.0031624376788386144
0.36000000000000026;-867491476.0;-853045744.0;-3.0;-3611.4320563721367;-3611.432369787754;1.2649750715354457e-05;0.0031914665896692895;0.0;0.0031914665896692895
0.36400000000000027;-881937205.0;-867491473.0;-3.0;-3611.432043490752;-3611.432357138003;1.2765866358677158e-05;0.0032203461159951985;0.0;0.0032203461159951985
0.36800000000000027;-896382934.0;-881937202.0;-3.0;-3611.4320304930006;-3611.432344372137;1.2881384463980794e-05;0.0032494378956471337;0.0;0.0032494378956471337
0.3720000000000003;-910828662.0;-896382931.0;-3.0;-3611.432017377376;-3611.4323314907524;1.2997751582588535e-05;0.003278906206105603;0.0;0.003278906206105603
0.3760000000000003;-925274391.0;-910828660.0;-2.0;-3611.4320041433425;-3611.432318493001;0.00010911562503679306;0.0033085083259720705;0.0;0.0033085083259720705
0.3800000000000003;-939720120.0;-925274388.0;-3.0;-3611.4319907910576;-3611.432209377376;-8.276596690848237e-05;0.003338071223879524;0.0;0.003338071223879524
0.3840000000000003;-954165848.0;-939720117.0;-3.0;-3611.431977321088;-3611.4322921433427;1.3352284895518096e-05;0.0033674923543003388;0.0;0.0033674923543003388
0.3880000000000003;-968611577.0;-954165846.0;-2.0;-3611.431963734092;-3611.432278791058;0.000109469969629572;0.003396749093553808;0.0;0.003396749093553808
0.3920000000000003;-983057305.0;-968611574.0;-3.0;-3611.4319500311376;-3611.432169321088;-8.241300383815542e-05;0.003425738555051794;0.0;0.003425738555051794
0.3960000000000003;-997503034.0;-983057303.0;-2.0;-3611.4319362127585;-3611.432251734092;0.00010970295443257783;0.00345459477557597;0.0;0.00345459477557597
0.4000000000000003;-1011948762.0;-997503031.0;-3.0;-3611.4319222796776;-3611.4321420311376;-8.218162111006677e-05;0.0034832702340281685;0.0;0.0034832702340281685
0.4040000000000003;-1026394490.0;-1011948759.0;-3.0;-3611.4319082324923;-3611.4322242127587;1.3933080936112674e-05;0.003511796307975601;0.0;0.003511796307975601
0.4080000000000003;-1040840219.0;-1026394487.0;-3.0;-3611.431894071735;-3611.4322102796777;1.4047185231902404e-05;0.003540189368322899;0.0;0.003540189368322899
0.4120000000000003;-1055285947.0;-1040840215.0;-4.0;-3611.4318797979404;-3611.4321962324925;-8.18392422843317e-05;0.003568448619262199;0.0;0.003568448619262199
0.4160000000000003;-1069731675.0;-1055285944.0;-3.0;-3611.4318654116432;-3611.432278071735;0.0001102737942346721;0.003596574288167176;0.0;0.003596574288167176
0.4200000000000003;-1084177403.0;-1069731672.0;-3.0;-3611.43185091391;-3611.4321677979406;1.4386297152668703e-05;0.0036244333614376956;0.0;0.0036244333614376956
0.4240000000000003;-1098623131.0;-1084177400.0;-3.0;-3611.4318363048665;-3611.4321534116434;1.4497733445750782e-05;0.0036522608297673287;0.0;0.0036522608297673287
0.4280000000000003;-1113068859.0;-1098623128.0;-3.0;-3611.4318215856442;-3611.43213891391;1.4609043319069315e-05;0.003679805558931548;0.0;0.003679805558931548
0.43200000000000033;-1127514587.0;-1113068856.0;-3.0;-3611.4318067562426;-3611.4321243048666;1.4719222235726193e-05;0.0037073504017826053;0.0;0.0037073504017826053
0.43600000000000033;-1141960315.0;-1127514584.0;-3.0;-3611.431791817824;-3611.4321095856444;1.4829401607130421e-05;0.003734604661076446;0.0;0.003734604661076446
0.44000000000000034;-1156406043.0;-1141960312.0;-3.0;-3611.4317767708276;-3611.432094756243;1.4938418644305784e-05;0.0037617490988850477;0.0;0.0037617490988850477
0.44400000000000034;-1170851770.0;-1156406040.0;-3.0;-3611.431761615977;-3611.432079817824;1.5046996395540191e-05;0.0037887126609348343;0.0;0.0037887126609348343
0.44800000000000034;-1185297498.0;-1170851768.0;-2.0;-3611.4317463538364;-3611.4320647708278;0.00011115485085610999;0.0038155351376190083;0.0;0.0038155351376190083
0.45200000000000035;-1199743226.0;-1185297495.0;-3.0;-3611.4317309850976;-3611.431953615977;-8.073785966189462e-05;0.0038421846966230078;0.0;0.0038421846966230078
0.45600000000000035;-1214188953.0;-1199743223.0;-3.0;-3611.4317155103245;-3611.4320343538366;1.536873878649203e-05;0.0038686932839482324;0.0;0.0038686932839482324
0.46000000000000035;-1228634681.0;-1214188951.0;-2.0;-3611.4316999303983;-3611.432018985098;0.00011147477334816358;0.0038949815461819526;0.0;0.0038949815461819526
0.46400000000000036;-1243080408.0;-1228634678.0;-3.0;-3611.43168424582;-3611.4319075103244;-8.042007402764284e-05;0.0039211445255205035;0.0;0.0039211445255205035
0.46800000000000036;-1257526136.0;-1243080405.0;-3.0;-3611.431668457408;-3611.4319879303985;1.5684578102082014e-05;0.003947103095924831;0.0;0.003947103095924831
0.47200000000000036;-1271971863.0;-1257526132.0;-4.0;-3611.4316525659137;-3611.4319722458204;-8.021158737392398e-05;0.003972873514612729;0.0;0.003972873514612729
0.47600000000000037;-1286417590.0;-1271971860.0;-3.0;-3611.431636571591;-3611.4320524574077;0.00011189149381607422;0.003998580723418854;0.0;0.003998580723418854
0.48000000000000037;-1300863317.0;-1286417587.0;-3.0;-3611.43162047538;-3611.431940565914;1.5994322893675417e-05;0.004024052714157733;0.0;0.004024052714157733
0.4840000000000004;-1315309044.0;-1300863314.0;-3.0;-3611.431604278161;-3611.431924571591;1.6096210856630933e-05;0.004049304720865621;0.0;0.004049304720865621
0.4880000000000004;-1329754771.0;-1315309041.0;-3.0;-3611.4315879804994;-3611.43190847538;1.6197218883462483e-05;0.00407441541483422;0.0;0.00407441541483422
0.4920000000000004;-1344200498.0;-1329754768.0;-3.0;-3611.4315715826465;-3611.4318922781613;1.6297661659336882e-05;0.00409946323998156;0.0;0.00409946323998156
0.4960000000000004;-1358646225.0;-1344200495.0;-3.0;-3611.431555085984;-3611.4318759804996;1.639785295992624e-05;0.004124165570829064;0.0;0.004124165570829064
0.5000000000000003;-1373091952.0;-1358646222.0;-3.0;-3611.431538490763;-3611.4318595826467;1.6496662283316255e-05;0.004148805260228983;0.0;0.004148805260228983
0.5040000000000003;-1387537679.0;-1373091949.0;-3.0;-3611.4315217978638;-3611.4318430859844;1.659522104091593e-05;0.004173224851911073;0.0;0.004173224851911073
