Zeit[sec];Sollposition[°];Istposition[°];Positionsschleppfehler[°];Sollgeschwindigkeit[°/s];Istgeschwindigkeit[°/s];Geschwindigkeitsdifferenz[°/s];Sollbeschleunigung[°/s*s];Istbeschleunigung[°/s*s];Beschleunigungsdifferenz[°/s*s]
0.0;0.0;4.0;-4.0;0.0;-0.00023999999999999998;0.0;0.0;0.0;0.0
0.004;0.0;4.0;-4.0;0.0;-0.00023999999999999998;0.0;0.0;0.0;0.0
0.008;0.0;4.0;-4.0;0.0;-0.00023999999999999998;0.0;0.0;0.0;0.0
0.012;0.0;4.0;-4.0;0.0;-0.00023999999999999998;0.0;0.0;0.0;0.0
0.016;0.0;4.0;-4.0;0.0;-0.00023999999999999998;0.0;0.0;0.0;0.0
0.02;0.0;4.0;-4.0;0.0;-0.00023999999999999998;0.0;0.0;0.0;0.0
0.024;0.0;4.0;-4.0;0.0;-0.00023999999999999998;0.0;0.0;0.0;0.0
0.028;0.0;4.0;-4.0;0.0;-0.00023999999999999998;0.0;0.0;0.0;0.0
0.032;0.0;4.0;-4.0;0.0;-0.00023999999999999998;0.0;0.0;0.0;0.0
0.036000000000000004;0.0;4.0;-4.0;0.0;-0.00023999999999999998;0.0;0.0;0.0;0.0
0.04000000000000001;0.0;4.0;-4.0;0.0;-0.00023999999999999998;0.0;0.0;0.0;0.0
0.04400000000000001;0.0;4.0;-4.0;0.0;-0.00023999999999999998;0.0;0.0;0.0;0.0
0.048000000000000015;0.0;4.0;-4.0;0.0;-0.00023999999999999998;0.0;0.0;0.0;0.0
0.05200000000000002;0.0;4.0;-4.0;0.0;-0.00023999999999999998;0.0;0.0;0.0;0.0
0.05600000000000002;0.0;4.0;-4.0;0.0;-0.00023999999999999998;0.0;0.0;0.0;0.0
0.060000000000000026;-403.0;4.0;-4.0;-0.10098670394360017;-0.00023999999999999998;0.0;-25.24667598590004;0.0;-25.24667598590004
0.06400000000000003;-4429.0;4.0;-407.0;-1.0064004562960507;-0.00023999999999999998;-0.12516670394360016;-226.35343808811263;0.0;-226.35343808811263
0.06800000000000003;-24216.0;-497.0;-3932.0;-4.946662319207865;-0.12540670394360015;-1.1169137523524504;-985.0654657279537;0.0;-985.0654657279537
0.07200000000000004;-89617.0;-5466.0;-18750.0;-16.35040564320946;-1.2423204562960506;-4.829341862911814;-2850.9358310003986;0.0;-2850.9358310003986
0.07600000000000004;-255530.0;-29752.0;-59865.0;-41.47826105863967;-6.071662319207865;-13.870643324001593;-6281.963853857552;0.0;-6281.963853857552
0.08000000000000004;-602535.0;-109521.0;-146009.0;-86.75120101365236;-19.94230564320946;-30.296495415430208;-11318.234988753175;0.0;-11318.234988753175
0.08400000000000005;-1229281.0;-310476.0;-292059.0;-156.68648158092302;-50.238801058639666;-54.035939955012694;-17483.82014181766;-166.66666666666666;-17317.153475150997
0.08800000000000005;-2242649.0;-727574.0;-501707.0;-253.34188983309107;-104.27474101365236;-82.51416056727065;-24163.852063042013;-416.6666666666667;-23747.18539637535
0.09200000000000005;-3752758.0;-1474729.0;-767920.0;-377.5274142673921;-186.788901580923;-112.62818825216803;-31046.381108575253;-916.6666666666666;-30129.71444190859
0.09600000000000006;-5871708.0;-2672397.0;-1080361.0;-529.7374380952034;-299.41708983309104;-142.93198443430106;-38052.50595695283;-1500.0;-36552.50595695283
0.10000000000000006;-8710051.0;-4441793.0;-1429915.0;-709.58573755236;-442.3490742673921;-173.1832638278113;-44962.07486428915;-2416.6666666666665;-42545.408197622484
0.10400000000000006;-12369726.0;-6903922.0;-1806129.0;-914.9185253874766;-615.5323380952034;-202.42113945715664;-51333.196958779154;-3500.0;-47833.196958779154
0.10800000000000007;-16937525.0;-10175735.0;-2193991.0;-1141.9496497255775;-817.95347755236;-228.60450783511646;-56757.78108452522;-4916.666666666667;-51841.11441785855
0.11200000000000007;-22481130.0;-14361966.0;-2575559.0;-1385.9013253074365;-1046.5579853874765;-249.9252043381009;-60987.91889546476;-6500.0;-54487.91889546476
0.11600000000000008;-29046910.0;-19547898.0;-2933232.0;-1641.4450190431392;-1296.4831897255774;-265.412055581859;-63885.92343392565;-8250.0;-55635.92343392565
0.12000000000000008;-36660049.0;-25795478.0;-3251432.0;-1903.2846301222835;-1561.8952453074364;-274.6356937357027;-65459.90276978608;-10166.666666666666;-55293.236103119416
0.12400000000000008;-45326787.0;-33141601.0;-3518448.0;-2166.684310881599;-1836.5309390431391;-277.86057107914417;-65849.92018982882;-12166.666666666666;-53683.25352316216
0.12800000000000009;-55036954.0;-41599167.0;-3727620.0;-2427.5417063290665;-2114.3915101222833;-275.95000075931557;-65214.348861866936;-14333.333333333334;-50881.01552853361
0.1320000000000001;-65765764.0;-51160533.0;-3876421.0;-2682.2023247050975;-2390.341510881599;-269.7854554474675;-63665.154594007734;-16500.0;-47165.154594007734
0.1360000000000001;-77473057.0;-61801040.0;-3964724.0;-2926.8231510235605;-2660.1269663290664;-259.95879837603115;-61155.20657961576;-18666.666666666668;-42488.5399129491
0.1400000000000001;-90099520.0;-73481383.0;-3991674.0;-3156.6154610193717;-2920.0857647050975;-246.2378263184628;-57448.077498952785;-20833.333333333332;-36614.74416561945
0.1440000000000001;-103564219.0;-86146677.0;-3952843.0;-3366.174689602436;-3166.3235910235603;-227.4624499958113;-52389.8071457661;-22833.333333333332;-29556.473812432767
0.1480000000000001;-117767237.0;-99721821.0;-3842398.0;-3550.754224126077;-3393.7860410193716;-202.9325285830646;-46144.88363091027;-24750.0;-21394.88363091027
0.1520000000000001;-132595957.0;-114108695.0;-3658542.0;-3707.180026889192;-3596.718569602436;-173.54817452364114;-39106.45069077873;-26416.666666666668;-12689.784024112061
0.1560000000000001;-147932119.0;-129189761.0;-3406196.0;-3834.04020052057;-3770.2667441260774;-141.2850427631147;-31715.043407844518;-28000.0;-3715.0434078445187
0.16000000000000011;-163658825.0;-144835968.0;-3096151.0;-3931.6762891104504;-3911.551786889192;-108.25747363137816;-24409.022147470067;-29333.333333333332;4924.311185863264
0.16400000000000012;-179666942.0;-160915205.0;-2743620.0;-4002.0291766888195;-4019.80926052057;-76.48422858988033;-17588.221894592265;-30500.0;12911.778105407735
0.16800000000000012;-195859682.0;-177300378.0;-2366564.0;-4048.184796842873;-4096.2934891104505;-47.729527578369016;-11538.905038513349;-31333.333333333332;19794.428294819983
0.17200000000000013;-212156633.0;-193876470.0;-1983212.0;-4074.237503574835;-4144.02301668882;-23.154500154053494;-6513.176682990547;-31916.666666666668;25403.48998367612
0.17600000000000013;-228498453.0;-210545180.0;-1611453.0;-4085.454739888283;-4167.177516842873;-3.747166731962352;-2804.309078361939;-32250.0;29445.69092163806
0.18000000000000013;-244848979.0;-227228878.0;-1269575.0;-4087.6312794671207;-4170.924683574835;9.295443686552971;-544.1348947094866;-32500.0;31955.86510529051
0.18400000000000014;-261191876.0;-243875394.0;-973585.0;-4085.7241053404546;-4161.629239888282;15.582860421161968;476.79353166654437;-32583.333333333332;33060.126864999875
0.18800000000000014;-277523754.0;-260459579.0;-732297.0;-4082.9694146032202;-4146.0463794671205;16.384454126666242;688.6726843085853;-32500.0;33188.672684308585
0.19200000000000014;-293847327.0;-276978226.0;-545528.0;-4080.892995234452;-4129.661925340454;13.960830737233664;519.1048421920641;-32333.333333333332;32852.4381755254
0.19600000000000015;-310166655.0;-293441030.0;-406297.0;-4079.831870087279;-4115.701094603221;10.430279368768424;265.28128679319707;-32250.0;32515.281286793197
0.20000000000000015;-326484820.0;-309862113.0;-304542.0;-4079.5410206214847;-4105.270815234452;7.1664251471729585;72.71236644862711;-32166.666666666668;32239.379033115296
0.20400000000000015;-342803381.0;-326254530.0;-230290.0;-4079.6399873544874;-4098.104390087279;4.7459694657945874;-24.74168325068149;-32083.333333333332;32058.59165008265
0.20800000000000016;-359122734.0;-342627963.0;-175418.0;-4079.8380281486334;-4093.3584206214846;3.193353266997292;-49.51019853649541;-31916.666666666668;31867.15646813017
0.21200000000000016;-375442690.0;-358988623.0;-134111.0;-4079.988792954529;-4090.1650673544873;2.280379205853933;-37.69120147387639;-31833.333333333332;31795.642131859455
0.21600000000000016;-391762919.0;-375340161.0;-102529.0;-4080.057101927649;-4087.8846881486334;1.7441551941046782;-17.077243280027687;-31500.0;31482.92275671997
0.22000000000000017;-408083174.0;-391684723.0;-78196.0;-4080.063624568071;-4086.1405329545287;1.3916710268795214;-1.6306601055475767;-31083.333333333332;31081.702673227785
0.22400000000000017;-424403343.0;-408023718.0;-59456.0;-4080.041970997747;-4084.748861927649;1.1178773595779603;5.413392581090193;-30333.333333333332;30338.74672591442
0.22800000000000017;-440723412.0;-424358241.0;-45102.0;-4080.0171248904057;-4083.630984568071;0.8828935703245406;6.211526835272707;-29500.0;29506.21152683527
0.23200000000000018;-457043415.0;-440689233.0;-34179.0;-4080.0005488524234;-4082.7480909977467;0.6802261073407863;4.144009495576029;-28333.333333333332;28337.477342828908
0.23600000000000018;-473363391.0;-457017504.0;-25911.0;-4079.9936883756436;-4082.067864890406;0.5126560379826515;1.7151191949551503;-27000.0;27001.715119194956
0.24000000000000019;-489683365.0;-473343724.0;-19667.0;-4079.9933658869263;-4081.555208852423;0.38150047677982;0.08062217932547355;-25416.666666666668;25416.747288845992
0.2440000000000002;-506003349.0;-489668418.0;-14947.0;-4079.9957752694263;-4081.1737083756434;0.28352248871715346;-0.6023456249977244;-23666.666666666668;23666.06432104167
0.2480000000000002;-522323343.0;-505991978.0;-11371.0;-4079.9983361703157;-4080.8901858869262;0.21215061749990127;-0.6402252223551841;-21750.0;21749.359774777644
0.25200000000000017;-538643344.0;-522314690.0;-8653.0;-4079.9999610511168;-4080.6780352694263;0.16051909911084294;-0.40622020026148675;-19666.666666666668;19666.260446466407
0.25600000000000017;-554963347.0;-538636760.0;-6584.0;-4080.000581126377;-4080.5175161703155;0.12251511919885161;-0.15501881500767922;-17583.333333333332;17583.178314518325
0.2600000000000002;-571283350.0;-554958340.0;-5007.0;-4080.0005604326348;-4080.3950010511167;0.09399992473981911;0.0051734355110966135;-15333.333333333334;15333.338506768845
0.2640000000000002;-587603352.0;-571279544.0;-3806.0;-4080.000293535777;-4080.301001126377;0.07208069374200932;0.06672421443454368;-13250.0;13250.066724214434
0.2680000000000002;-603923353.0;-587600459.0;-2893.0;-4080.0000333194685;-4080.228920432635;0.055046896857675165;0.06505407714030298;-11083.333333333334;11083.398387410474
0.2720000000000002;-620243353.0;-603921154.0;-2199.0;-4079.999877647695;-4080.173873535777;0.041900216308476956;0.03891794335686427;-9166.666666666666;9166.705584610023
0.2760000000000002;-636563353.0;-620241681.0;-1672.0;-4079.9998245317015;-4080.1319733194687;0.031775671773630165;0.013278998380883422;-7166.666666666667;7166.679945665048
0.2800000000000002;-652883353.0;-636562081.0;-1272.0;-4079.999833055685;-4080.100197647695;0.024053115993410756;-0.002130995881088893;-5416.666666666667;5416.664535670786
0.2840000000000002;-669203353.0;-652882385.0;-968.0;-4079.999862817073;-4080.0761445317016;0.0182314760168083;-0.007440346962539479;-3833.3333333333335;3833.325892986371
0.2880000000000002;-685523354.0;-669202616.0;-737.0;-4079.9998894170008;-4080.057913055685;0.013830238611717505;-0.006649981969530927;-2500.0;2499.9933500180305
0.2920000000000002;-701843354.0;-685522792.0;-562.0;-4079.9999043684884;-4080.044082817073;0.010473400072442018;-0.0037378719071057276;-1416.6666666666667;1416.6629287947596
0.2960000000000002;-718163354.0;-701842926.0;-428.0;-4079.9999088402255;-4080.0336094170007;0.008025048512081412;-0.001117934289140976;-500.0;499.99888206571086
0.3000000000000002;-734483355.0;-718163028.0;-326.0;-4079.999907391219;-4080.0255843684886;0.006115528262853331;0.0003622516260293196;83.33333333333333;-83.3329710817073
0.3040000000000002;-750803355.0;-734483105.0;-250.0;-4079.999904150095;-4080.0194688402257;0.004561449006814655;0.000810280994301138;416.6666666666667;-416.6658563856724
0.3080000000000002;-767123356.0;-750803164.0;-191.0;-4079.9999014609657;-4080.014907391219;0.0035432411236797634;0.0006722823400195921;583.3333333333334;-583.3326610509934
0.3120000000000002;-783443356.0;-767123209.0;-147.0;-4079.9999000421703;-4080.0113641500952;0.0026426891295159294;0.00035469884096528403;666.6666666666666;-666.6663119678257
0.3160000000000002;-799763356.0;-783443243.0;-113.0;-4079.999899683365;-4080.0087214609657;0.002041418795215577;8.97013023859472e-05;666.6666666666666;-666.6665769653642
0.32000000000000023;-816083357.0;-799763269.0;-87.0;-4079.9998998868964;-4080.0066800421705;0.0015603588053636486;-5.0882817959063686e-05;500.0;-500.00005088281796
0.32400000000000023;-832403357.0;-816083289.0;-68.0;-4079.9999002348736;-4080.005119683365;0.0011397964685784245;-8.69943050929578e-05;333.3333333333333;-333.3334203276384
0.32800000000000024;-848723357.0;-832403304.0;-53.0;-4079.999900504342;-4080.0039798868966;0.0008996520227810834;-6.736706836818485e-05;250.0;-250.00006736706837
0.33200000000000024;-865043358.0;-848723316.0;-41.0;-4079.9999006373127;-4080.003080234874;0.0007197305317276914;-3.324271347082686e-05;250.0;-250.00003324271347
0.33600000000000024;-881363358.0;-865043325.0;-33.0;-4079.9999006640364;-4080.002360504342;0.00047986702929847525;-6.680920705548488e-06;166.66666666666666;-166.66667334758736
0.34000000000000025;-897683359.0;-881363332.0;-26.0;-4079.9999006379207;-4080.0018806373128;0.00041997327616627445;6.528921403514687e-06;83.33333333333333;-83.33332680441193
0.34400000000000025;-914003359.0;-897683337.0;-22.0;-4079.9999006009375;-4080.0014606640366;0.000240026115989167;9.245809451385867e-06;83.33333333333333;-83.33332408752388
0.34800000000000025;-930323359.0;-914003341.0;-18.0;-4079.999900574213;-4080.0012206379206;0.00024003698308661114;6.681148079223931e-06;83.33333333333333;-83.33332665218525
0.35200000000000026;-946643360.0;-930323344.0;-15.0;-4079.999900561804;-4080.0009806009375;0.00018002672459260793;3.1021727409097366e-06;83.33333333333333;-83.33333023116059
0.35600000000000026;-962963360.0;-946643347.0;-13.0;-4079.999900560223;-4080.000800574213;0.00012001240884274011;3.9528913475805894e-07;0.0;3.9528913475805894e-07
0.36000000000000026;-979283360.0;-962963349.0;-11.0;-4079.999900563305;-4080.000680561804;0.00012000158085356816;-7.704556992393918e-07;0.0;-7.704556992393918e-07
0.36400000000000027;-995603361.0;-979283351.0;-9.0;-4079.9999005671984;-4080.000560560223;0.00011999691832897952;-9.733867045724764e-07;0.0;-9.733867045724764e-07
0.36800000000000027;-1011923361.0;-995603352.0;-9.0;-4079.9999005698332;-4080.000440563305;-3.893546818289906e-09;-6.587015377590433e-07;0.0;-6.587015377590433e-07
0.3720000000000003;-1028243362.0;-1011923353.0;-8.0;-4079.999900570969;-4080.0004405671984;5.9997365042363526e-05;-2.8398972062859684e-07;0.0;-2.8398972062859684e-07
0.3760000000000003;-1044563362.0;-1028243354.0;-8.0;-4079.9999005710506;-4080.0003805698334;-1.1359588825143874e-09;-2.034994395216927e-08;0.0;-2.034994395216927e-08
0.3800000000000003;-1060883362.0;-1044563355.0;-7.0;-4079.999900570645;-4080.0003805709694;5.9999918903486105e-05;1.014086592476815e-07;0.0;1.014086592476815e-07
0.3840000000000003;-1077203363.0;-1060883356.0;-6.0;-4079.9999005702803;-4080.0003205710505;6.000040548315155e-05;9.117684385273606e-08;0.0;9.117684385273606e-08
0.3880000000000003;-1093523363.0;-1077203357.0;-6.0;-4079.999900569996;-4080.000260570645;3.647073754109442e-10;7.105427357601002e-08;0.0;7.105427357601002e-08
0.3920000000000003;-1109843363.0;-1093523358.0;-5.0;-4079.9999005699146;-4080.0002605702803;6.0000284065608867e-05;2.034994395216927e-08;0.0;2.034994395216927e-08
0.3960000000000003;-1126163364.0;-1109843358.0;-5.0;-4079.9999005699146;-4080.000200569996;8.139977580867708e-11;0.0;0.0;0.0
0.4000000000000003;-1142483364.0;-1126163358.0;-6.0;-4079.9999005698746;-4080.000200569915;-5.999999984851456e-05;1.000444171950221e-08;0.0;1.000444171950221e-08
0.4040000000000003;-1158803365.0;-1142483359.0;-5.0;-4079.999900570037;-4080.0002605699146;6.000003986628144e-05;-4.058620106661692e-08;0.0;-4.058620106661692e-08
0.4080000000000003;-1175123365.0;-1158803359.0;-6.0;-4079.999900569996;-4080.000200569875;-6.000016219331883e-05;1.0231815394945443e-08;0.0;1.0231815394945443e-08
0.4120000000000003;-1191443365.0;-1175123360.0;-5.0;-4079.999900570037;-4080.000260570037;6.000004077577614e-05;-1.0231815394945443e-08;0.0;-1.0231815394945443e-08
0.4160000000000003;-1207763366.0;-1191443360.0;-5.0;-4079.999900569996;-4080.000200569996;-4.092726157978177e-11;1.0231815394945443e-08;0.0;1.0231815394945443e-08
0.4200000000000003;-1224083366.0;-1207763360.0;-6.0;-4079.999900570037;-4080.000200570037;-5.999995892125298e-05;-1.0231815394945443e-08;0.0;-1.0231815394945443e-08
0.4240000000000003;-1240403366.0;-1224083361.0;-5.0;-4079.999900569996;-4080.000260569996;5.999995892125298e-05;1.0231815394945443e-08;0.0;1.0231815394945443e-08
0.4280000000000003;-1256723367.0;-1240403361.0;-5.0;-4079.999900569996;-4080.000200570037;4.092726157978177e-11;0.0;0.0;0.0
0.43200000000000033;-1273043367.0;-1256723361.0;-6.0;-4079.999900570037;-4080.000200569996;-5.999999984851456e-05;-1.0231815394945443e-08;0.0;-1.0231815394945443e-08
0.43600000000000033;-1289363368.0;-1273043362.0;-5.0;-4079.999900569996;-4080.000260569996;5.999995892125298e-05;1.0231815394945443e-08;0.0;1.0231815394945443e-08
0.44000000000000034;-1305683368.0;-1289363362.0;-6.0;-4079.999900570037;-4080.000200570037;-5.999995892125298e-05;-1.0231815394945443e-08;0.0;-1.0231815394945443e-08
0.44400000000000034;-1322003368.0;-1305683363.0;-5.0;-4079.999900569996;-4080.000260569996;5.999995892125298e-05;1.0231815394945443e-08;0.0;1.0231815394945443e-08
0.44800000000000034;-1338323369.0;-1322003363.0;-5.0;-4079.999900569996;-4080.000200570037;4.092726157978177e-11;0.0;0.0;0.0
0.45200000000000035;-1354643369.0;-1338323363.0;-6.0;-4079.9999005699146;-4080.000200569996;-5.999999984851456e-05;2.034994395216927e-08;0.0;2.034994395216927e-08
0.45600000000000035;-1370963370.0;-1354643364.0;-5.0;-4079.999900570037;-4080.000260569996;6.000008124829037e-05;-3.058175934711471e-08;0.0;-3.058175934711471e-08
0.46000000000000035;-1387283370.0;-1370963364.0;-6.0;-4079.999900569996;-4080.000200569915;-6.000012217555195e-05;1.0231815394945443e-08;0.0;1.0231815394945443e-08
0.46400000000000036;-1403603370.0;-1387283365.0;-5.0;-4079.9999005701184;-4080.000260570037;6.000004077577614e-05;-3.058175934711471e-08;0.0;-3.058175934711471e-08
0.46800000000000036;-1419923371.0;-1403603365.0;-5.0;-4079.999900570037;-4080.000200569996;-1.2232703738845885e-10;2.034994395216927e-08;0.0;2.034994395216927e-08
0.47200000000000036;-1436243371.0;-1419923365.0;-6.0;-4079.999900569996;-4080.0002005701185;-5.9999918448738754e-05;1.0231815394945443e-08;0.0;1.0231815394945443e-08
0.47600000000000037;-1452563371.0;-1436243366.0;-5.0;-4079.999900569996;-4080.000260570037;6.000004077577614e-05;0.0;0.0;0.0
0.48000000000000037;-1468883372.0;-1452563366.0;-5.0;-4079.999900570037;-4080.000200569996;0.0;-1.0231815394945443e-08;0.0;-1.0231815394945443e-08
0.4840000000000004;-1485203372.0;-1468883366.0;-6.0;-4079.9999005698746;-4080.000200569996;-6.000004077577614e-05;4.058620106661692e-08;0.0;4.058620106661692e-08
0.4880000000000004;-1501523373.0;-1485203367.0;-5.0;-4079.999900570037;-4080.000260570037;6.000016219331883e-05;-4.058620106661692e-08;0.0;-4.058620106661692e-08
0.4920000000000004;-1517843373.0;-1501523367.0;-6.0;-4079.999900570037;-4080.000200569875;-6.000016219331883e-05;0.0;0.0;0.0
0.4960000000000004;-1534163373.0;-1517843368.0;-5.0;-4079.9999005699556;-4080.000260570037;5.999999984851456e-05;2.034994395216927e-08;0.0;2.034994395216927e-08
0.5000000000000003;-1550483374.0;-1534163368.0;-5.0;-4079.999900570037;-4080.000200570037;8.139977580867708e-11;-2.034994395216927e-08;0.0;-2.034994395216927e-08
0.5040000000000003;-1566803374.0;-1550483368.0;-6.0;-4079.999900570037;-4080.0002005699557;-6.000008124829037e-05;0.0;0.0;0.0
0.5080000000000003;-1583123374.0;-1566803369.0;-5.0;-4079.999900570037;-4080.000260570037;5.999999984851456e-05;0.0;0.0;0.0
0.5120000000000003;-1599443375.0;-1583123369.0;-5.0;-4079.9999005699556;-4080.000200570037;0.0;2.034994395216927e-08;0.0;2.034994395216927e-08
0.5160000000000003;-1615763375.0;-1599443369.0;-6.0;-4079.9999005701184;-4080.000200570037;-5.9999918448738754e-05;-4.069988790433854e-08;0.0;-4.069988790433854e-08
