Zeit[sec];Sollposition[°];Istposition[°];Positionsschleppfehler[°];Sollgeschwindigkeit[°/s];Istgeschwindigkeit[°/s];Geschwindigkeitsdifferenz[°/s];Sollbeschleunigung[°/s*s];Istbeschleunigung[°/s*s];Beschleunigungsdifferenz[°/s*s]
0.0;-9979199999.0;-9979200003.0;4.0;0.0;0.00023999999999999998;0.0;0.0;0.0;0.0
0.004;-9979199999.0;-9979200003.0;4.0;0.0;0.00023999999999999998;0.0;0.0;0.0;0.0
0.008;-9979199999.0;-9979200003.0;4.0;0.0;0.00023999999999999998;0.0;0.0;0.0;0.0
0.012;-9979199999.0;-9979200003.0;4.0;0.0;0.00023999999999999998;0.0;0.0;0.0;0.0
0.016;-9979199999.0;-9979200003.0;4.0;0.0;0.00023999999999999998;0.0;0.0;0.0;0.0
0.02;-9979199999.0;-9979200003.0;4.0;0.0;0.00023999999999999998;0.0;0.0;0.0;0.0
0.024;-9979199999.0;-9979200003.0;4.0;0.0;0.00023999999999999998;0.0;0.0;0.0;0.0
0.028;-9979199999.0;-9979200003.0;4.0;0.0;0.00023999999999999998;0.0;0.0;0.0;0.0
0.032;-9979199999.0;-9979200003.0;4.0;0.0;0.00023999999999999998;0.0;0.0;0.0;0.0
0.036000000000000004;-9979199999.0;-9979200003.0;4.0;0.0;0.00023999999999999998;0.0;0.0;0.0;0.0
0.04000000000000001;-9979199999.0;-9979200003.0;4.0;0.0;0.00023999999999999998;0.0;0.0;0.0;0.0
0.04400000000000001;-9979199999.0;-9979200003.0;4.0;0.0;0.00023999999999999998;0.0;0.0;0.0;0.0
0.048000000000000015;-9979199999.0;-9979200003.0;4.0;0.0;0.00023999999999999998;0.0;0.0;0.0;0.0
0.05200000000000002;-9979199999.0;-9979200003.0;4.0;0.0;0.00023999999999999998;0.0;0.0;0.0;0.0
0.05600000000000002;-9979199999.0;-9979200003.0;4.0;0.0;0.00023999999999999998;0.0;0.0;0.0;0.0
0.060000000000000026;-9979199683.0;-9979200003.0;4.0;0.07919598483447216;0.00023999999999999998;0.0;19.79899620861804;0.0;19.79899620861804
0.06400000000000003;-9979196526.0;-9979200003.0;320.0;0.7892412847802122;0.00023999999999999998;0.09815598483447215;177.511324986435;0.0;177.511324986435
0.06800000000000003;-9979095890.0;-9979199610.0;3084.0;25.158974252305402;0.09839598483447215;0.87588529994574;6092.433241881297;0.0;6092.433241881297
0.07200000000000004;-9978913022.0;-9979195713.0;99823.0;45.7169227701604;0.9742812847802121;30.17407296752519;5139.48712946375;0.0;5139.48712946375
0.07600000000000004;-9978567670.0;-9979071120.0;158098.0;86.33793135651652;31.148354252305403;24.054448517855;10155.25214658903;83.33333333333333;10071.918813255696
0.08000000000000004;-9978024199.0;-9978850309.0;282639.0;135.86787790891609;55.2028027701604;48.09346858635611;12382.486638099892;166.66666666666666;12215.819971433224
0.08400000000000005;-9977264429.0;-9978437124.0;412925.0;189.94233627069605;103.29627135651651;57.347106552399566;13518.61459044499;416.6666666666667;13101.947923778323
0.08800000000000005;-9976229151.0;-9977794551.0;530122.0;258.8195471996303;160.64337790891608;61.10627836177997;17219.30273223356;750.0;16469.30273223356
0.09200000000000005;-9974816624.0;-9976907553.0;678402.0;353.1318598481401;221.74965627069605;77.77401092893422;23578.078162127455;1250.0;22328.078162127455
0.09600000000000006;-9972931060.0;-9975709459.0;892835.0;471.3909412212476;299.52366719963027;107.1782926485098;29564.770343276876;1833.3333333333333;27731.437009943544
0.10000000000000006;-9970497923.0;-9974082652.0;1151592.0;608.2842709826515;406.70195984814006;133.78450137310756;34223.332440350976;2416.6666666666665;31806.665773684304
0.10400000000000006;-9967450796.0;-9971920707.0;1422784.0;761.7817358039291;540.4864612212476;153.16484976140384;38374.366205319406;3250.0;35124.366205319406
0.10800000000000007;-9963728218.0;-9969146102.0;1695306.0;930.6442967591277;693.6513109826515;169.8487848212776;42215.640238799635;4250.0;37965.640238799635
0.11200000000000007;-9959283047.0;-9965692102.0;1963884.0;1111.2928059012281;863.5000958039291;184.97724095519857;45162.127285525115;5500.0;39662.127285525115
0.11600000000000008;-9954079512.0;-9961498193.0;2215146.0;1300.8835888148492;1048.4773367591276;195.7242291421005;47397.69572840527;6833.333333333333;40564.362395071934
0.12000000000000008;-9948088157.0;-9956521387.0;2441875.0;1497.8386758274282;1244.2015659012282;203.19452291362109;49238.77175314476;8250.0;40988.77175314476
0.12400000000000008;-9941287844.0;-9950731803.0;2643646.0;1700.0781198459833;1447.3960888148492;209.06134701257906;50559.86100463878;9750.0;40809.86100463878
0.12800000000000009;-9933666792.0;-9944105974.0;2818130.0;1905.2629149504971;1656.4574358274283;212.70848401855505;51296.19877612845;11333.333333333334;39962.86544279511
0.1320000000000001;-9925228680.0;-9936629311.0;2962519.0;2109.527945379581;1869.1659198459834;213.84813510451386;51066.257607270985;12916.666666666666;38149.59094060432
0.1360000000000001;-9915997417.0;-9928297255.0;3068575.0;2307.8156389869287;2083.014054950497;210.628390429084;49571.923401836895;14583.333333333334;34988.59006850357
0.1400000000000001;-9906005528.0;-9919122686.0;3125269.0;2497.9722999530654;2293.642445379581;201.68933360734763;47539.165241534196;16250.0;31289.165241534192
0.1440000000000001;-9895289322.0;-9909141359.0;3135831.0;2679.0512606321513;2495.331778986929;190.79038096613658;45269.74016977147;17916.666666666668;27353.0735031048
0.1480000000000001;-9883897077.0;-9898396871.0;3107549.0;2848.0611309169317;2686.1221599530654;179.382040679086;42252.4675711951;19500.0;22752.4675711951
0.1520000000000001;-9871888360.0;-9886934855.0;3037778.0;3002.179031184682;2865.5042006321514;164.82361028478044;38529.47506693761;20916.666666666668;17612.80840027094
0.1560000000000001;-9859330195.0;-9874813544.0;2925184.0;3139.54109818546;3030.327810916932;147.36226026775012;34340.516750194525;22333.333333333332;12007.183416861193
0.16000000000000011;-9846297368.0;-9862102784.0;2772589.0;3258.206550090734;3177.690071184682;128.2063670007783;29666.362976318396;23583.333333333332;6083.029642985064
0.16400000000000012;-9832872311.0;-9848879199.0;2581831.0;3356.2641403939733;3305.8964381854603;107.21997190527327;24514.397575809882;24833.333333333332;-318.9357575234517
0.16800000000000012;-9819135416.0;-9835226734.0;2354423.0;3434.223596123881;3413.1164100907336;84.41311030323959;19489.863932476965;25750.0;-6260.136067523035
0.17200000000000013;-9805154657.0;-9821236616.0;2101200.0;3495.189733583063;3497.529520393973;62.76607572990815;15241.534364795483;26666.666666666668;-11425.132301871185
0.17600000000000013;-9790992271.0;-9806995434.0;1840777.0;3540.5963107164957;3560.2955961238813;45.34075745918199;11351.644283358155;27250.0;-15898.355716641845
0.18000000000000013;-9776706579.0;-9792572889.0;1580618.0;3571.4227437047402;3605.6363535830633;29.79703713343224;7706.608247061126;27833.333333333332;-20126.725086272207
0.18400000000000014;-9762342649.0;-9778031156.0;1324577.0;3590.982326570573;3635.4333907164955;15.463972988244677;4889.895716458227;28083.333333333332;-23193.437616875104
0.18800000000000014;-9747932984.0;-9763427567.0;1084918.0;3602.416121190361;3650.89736370474;5.180042865833002;2858.448654946983;28333.333333333332;-25474.88467838635
0.19200000000000014;-9733501700.0;-9748803258.0;870274.0;3607.8207197934507;3656.077406570573;-1.444845380211973;1351.1496507724132;28416.666666666668;-27065.517015894256
0.19600000000000015;-9719064572.0;-9734184728.0;683028.0;3609.281895567039;3654.6325611903612;-5.830161396910626;365.2939433970914;28583.333333333332;-28218.03938993624
0.20000000000000015;-9704629608.0;-9719589519.0;524947.0;3608.7407115771985;3648.8023997934506;-8.02368422641166;-135.29599746016174;28583.333333333332;-28718.629330793494
0.20400000000000015;-9690199173.0;-9705026405.0;396797.0;3607.6087158743994;3640.778715567039;-8.230183989840498;-282.9989256997578;28416.666666666668;-28699.665592366426
0.20800000000000016;-9675772591.0;-9690496211.0;297038.0;3606.645422104668;3632.5485315771984;-7.1175357027991595;-240.8234424328839;28166.666666666668;-28407.49010909955
0.21200000000000016;-9661348229.0;-9675994488.0;221897.0;3606.0901939377786;3625.4309958743993;-5.471753769731549;-138.80704172231617;27833.333333333332;-27972.14037505565
0.21600000000000016;-9646924670.0;-9661514652.0;166423.0;3605.889721787338;3619.9592421046677;-3.883668166889038;-50.11803761010469;27500.0;-27550.118037610104
0.22000000000000017;-9632501094.0;-9647050350.0;125680.0;3605.8938347505887;3616.0755739377787;-2.6450521504402786;1.028240812615877;27083.333333333332;-27082.305092520717
0.22400000000000017;-9618077215.0;-9632596628.0;95534.0;3605.96943516087;3613.4305217873384;-1.8046470367498841;18.900102570341915;26500.0;-26481.09989742966
0.22800000000000017;-9603653056.0;-9618150125.0;72910.0;3606.039604257237;3611.6258747505885;-1.2818395897184018;17.542274091738363;25833.333333333332;-25815.791059241594
0.23200000000000018;-9589228743.0;-9603708749.0;55693.0;3606.0780705201087;3610.34403516087;-0.9628509036333526;9.616565717919912;24916.666666666668;-24907.05010094875
0.23600000000000018;-9574804391.0;-9589271225.0;42482.0;3606.087929450332;3609.381184257237;-0.7541937371279346;2.4647325558362354;23916.666666666668;-23914.20193411083
0.24000000000000019;-9560380061.0;-9574836718.0;32327.0;3606.0821711070166;3608.626990520109;-0.5994410697767307;-1.4395858288480667;22750.0;-22751.439585828848
0.2440000000000002;-9545955771.0;-9560404608.0;24547.0;3606.0723429596737;3608.027549450332;-0.4725583433155407;-2.4570368357217376;21416.666666666668;-21419.123703502388
0.2480000000000002;-9531531511.0;-9545974389.0;18618.0;3606.064754688478;3607.5549911070166;-0.3655681473428558;-1.8970677989500473;20000.0;-20001.89706779895
0.25200000000000017;-9517107266.0;-9531545632.0;14121.0;3606.061094002587;3607.1894229596737;-0.2774082711957817;-0.915171472684051;18416.666666666668;-18417.58183813935
0.25600000000000017;-9502683024.0;-9517117984.0;10718.0;3606.060517361931;3606.912014688478;-0.20784068589091476;-0.14416016404084075;16833.333333333332;-16833.477493497372
0.2600000000000002;-9488258777.0;-9502691168.0;8144.0;3606.0614899898505;3606.704174002587;-0.15501664065595833;0.24315697987731255;15250.0;-15249.756843020123
0.2640000000000002;-9473834525.0;-9488264972.0;6195.0;3606.0627968081526;3606.549157361931;-0.11596737208037666;0.32670457551375875;13583.333333333334;-13583.00662875782
0.2680000000000002;-9459410269.0;-9473839240.0;4715.0;3606.0638234305447;3606.4331899898507;-0.08749318169793696;0.25665559803655924;11916.666666666666;-11916.41001106863
0.2720000000000002;-9444986011.0;-9459413858.0;3589.0;3606.0644345635496;3606.3456968081528;-0.06653337760781142;0.1527832512238092;10250.0;-10249.847216748776
0.2760000000000002;-9430561751.0;-9444988742.0;2731.0;3606.0647387457825;3606.279163430545;-0.050868866995188;0.07604555821671966;8750.0;-8749.923954441783
0.2800000000000002;-9416137491.0;-9430563829.0;2078.0;3606.0648994255776;3606.2282945635498;-0.03887581776734805;0.040169948761104024;7250.0;-7249.959830051239
0.2840000000000002;-9401713230.0;-9416139072.0;1581.0;3606.0650382251033;3606.1894187457824;-0.029659320204700634;0.03469988143933733;5833.333333333333;-5833.298633451894
0.2880000000000002;-9387288968.0;-9401714433.0;1203.0;3606.0652126826785;3606.1597594255777;-0.02254120047427932;0.04361439380318188;4500.0;-4499.956385606197
0.2920000000000002;-9372864706.0;-9387289885.0;917.0;3606.06543239543;3606.1372182251034;-0.016985542425118183;0.054928187864788924;3416.6666666666665;-3416.6117384788017
0.2960000000000002;-9358440443.0;-9372865405.0;699.0;3606.0656841436135;3606.1202326826783;-0.012860287248258828;0.06293704586823878;2416.6666666666665;-2416.6037296207983
0.3000000000000002;-9344016178.0;-9358440976.0;533.0;3606.06595079748;3606.10737239543;-0.009708251816391567;0.066663466668615;1583.3333333333333;-1583.2666698666646
0.3040000000000002;-9329591913.0;-9344016586.0;408.0;3606.066220366177;3606.0976641436137;-0.007233346133489249;0.06739217417361942;916.6666666666666;-916.599274492493
0.3080000000000002;-9315167646.0;-9329592225.0;312.0;3606.066487587601;3606.09043079748;-0.0054904313033148355;0.0668053560275439;416.6666666666667;-416.59986131063914
0.3120000000000002;-9300743378.0;-9315167886.0;240.0;3606.066751939208;3606.084940366177;-0.004052778575896809;0.06608790181417135;83.33333333333333;-83.26724543151916
0.3160000000000002;-9286319109.0;-9300743563.0;185.0;3606.067014980555;3606.080887587601;-0.003035648392597068;0.06576033672445192;-250.0;250.06576033672445
0.32000000000000023;-9271894840.0;-9286319252.0;143.0;3606.067278495684;3606.0778519392084;-0.002256958653106267;0.06587878226582689;-333.3333333333333;333.39921211559914
0.32400000000000023;-9257470569.0;-9271894950.0;110.0;3606.06754365174;3606.0755949805553;-0.0017164848709398939;0.06628901394378772;-416.6666666666667;416.7329556806105
0.32800000000000024;-9243046297.0;-9257470655.0;86.0;3606.067810915003;3606.0738784956843;-0.0011748439442271774;0.06681581578504847;-333.3333333333333;333.40014914911836
0.33200000000000024;-9228622024.0;-9243046365.0;68.0;3606.0680802851844;3606.07270365174;-0.0008127367368615523;0.06734254532148043;-333.3333333333333;333.4006758786548
0.33600000000000024;-9214197750.0;-9228622078.0;54.0;3606.0683515744445;3606.071890915003;-0.0005706298188670189;0.06782231503166258;-250.0;250.06782231503166
0.34000000000000025;-9199773475.0;-9214197793.0;43.0;3606.0686245937895;3606.0713202851844;-0.00038871074002599926;0.06825483626471396;-250.0;250.0682548362647
0.34400000000000025;-9185349198.0;-9199773510.0;35.0;3606.068899214243;3606.0709315744443;-0.00020698065463875537;0.06865511340947705;-166.66666666666666;166.73532178007613
0.34800000000000025;-9170924921.0;-9185349228.0;30.0;3606.0691753907918;3606.0707245937897;-2.53795465141593e-05;0.06904413714892144;-83.33333333333333;83.40237747048225
0.35200000000000026;-9156500642.0;-9170924946.0;25.0;3606.0694531150693;3606.070699214243;-2.382345155638177e-05;0.06943106939161225;-83.33333333333333;83.40276440272494
0.35600000000000026;-9142076363.0;-9156500664.0;22.0;3606.069732404675;3606.0706753907916;9.772427756615798e-05;0.06982240142860974;-83.33333333333333;83.40315573476194
0.36000000000000026;-9127652082.0;-9142076381.0;18.0;3606.0700132627844;3606.070773115069;3.928960586563335e-05;0.07021452734079503;-83.33333333333333;83.40354786067412
0.36400000000000027;-9113227800.0;-9127652098.0;16.0;3606.070295699784;3606.070812404675;0.00016085810921140364;0.07060924986035388;0.0;0.07060924986035388
0.36800000000000027;-9098803517.0;-9113227815.0;15.0;3606.0705797044207;3606.0709732627843;0.00022243699959290097;0.07100115919911332;0.0;0.07100115919911332
0.3720000000000003;-9084379233.0;-9098803531.0;14.0;3606.0708652726553;3606.071195699784;0.0002240046369479387;0.07139205865769327;0.0;0.07139205865769327
0.3760000000000003;-9069954948.0;-9084379246.0;13.0;3606.0711523883288;3606.071419704421;0.00022556823432751116;0.07177891836818162;0.0;0.07177891836818162
0.3800000000000003;-9055530661.0;-9069954960.0;12.0;3606.0714410479804;3606.071645272655;0.00022711567362421192;0.07216491292183491;0.0;0.07216491292183491
0.3840000000000003;-9041106374.0;-9055530673.0;12.0;3606.0717312354504;3606.0718723883288;0.00028865965168733965;0.07254686750002293;0.0;0.07254686750002293
0.3880000000000003;-9026682085.0;-9041106385.0;11.0;3606.072022946122;3606.0721610479804;0.00023018747015157714;0.07292766792943439;0.0;0.07292766792943439
0.3920000000000003;-9012257795.0;-9026682096.0;11.0;3606.0723161716287;3606.0723912354506;0.00029171067171773757;0.07330637663471862;0.0;0.07330637663471862
0.3960000000000003;-8997833504.0;-9012257806.0;11.0;3606.072610898985;3606.0726829461223;0.00029322550653887447;0.07368183912603854;0.0;0.07368183912603854
0.4000000000000003;-8983409212.0;-8997833515.0;11.0;3606.072907125596;3606.072976171629;0.00029472735650415416;0.07405665269288875;0.0;0.07405665269288875
0.4040000000000003;-8968984918.0;-8983409222.0;10.0;3606.073204838186;3606.0732708989854;0.00023622661046829307;0.07442814751357218;0.0;0.07442814751357218
0.4080000000000003;-8954560623.0;-8968984928.0;10.0;3606.073504031275;3606.073507125596;0.00029771259005428874;0.07479827229417424;0.0;0.07479827229417424
0.4120000000000003;-8940136327.0;-8954560633.0;10.0;3606.0738046921665;3606.073804838186;0.00029919308917669696;0.07516522282458027;0.0;0.07516522282458027
0.4160000000000003;-8925712030.0;-8940136337.0;10.0;3606.074106817398;3606.074104031275;0.0003006608912983211;0.07553130785709072;0.0;0.07553130785709072
0.4200000000000003;-8911287732.0;-8925712040.0;10.0;3606.074410391677;3606.0744046921664;0.0003021252314283629;0.07589356971493544;0.0;0.07589356971493544
0.4240000000000003;-8896863432.0;-8911287742.0;10.0;3606.074715411252;3606.074706817398;0.00030357427885974175;0.07625489377005579;0.0;0.07625489377005579
0.4280000000000003;-8882439132.0;-8896863442.0;10.0;3606.0750218657363;3606.0750103916766;0.00030501957508022315;0.07661362110411574;0.0;0.07661362110411574
0.43200000000000033;-8868014830.0;-8882439141.0;9.0;3606.0753297447422;3606.0753154112517;0.0002464544845679484;0.07696975148974161;0.0;0.07696975148974161
0.43600000000000033;-8853590526.0;-8868014839.0;9.0;3606.0756390378815;3606.0755618657363;0.00030787900595896645;0.07732328481324657;0.0;0.07732328481324657
0.44000000000000034;-8839166222.0;-8853590536.0;10.0;3606.0759497396734;3606.0758697447422;0.00036929313910150086;0.07767544798298331;0.0;0.07767544798298331
0.44400000000000034;-8824741916.0;-8839166232.0;10.0;3606.076261840307;3606.0762390378814;0.00031070179193193326;0.07802515835919621;0.0;0.07802515835919621
0.44800000000000034;-8810317609.0;-8824741926.0;10.0;3606.076575326508;3606.0765497396733;0.00031210063343678485;0.07837155033030285;0.0;0.07837155033030285
0.45200000000000035;-8795893301.0;-8810317619.0;10.0;3606.0768901951046;3606.0768618403067;0.0003134862013212114;0.07871714910834271;0.0;0.07871714910834271
0.45600000000000035;-8781468991.0;-8795893311.0;10.0;3606.0772064305143;3606.077175326508;0.00031486859643337084;0.07905885240688804;0.0;0.07905885240688804
0.46000000000000035;-8767044681.0;-8781469002.0;11.0;3606.07752402841;3606.0774901951045;0.00037623540993081406;0.07939947397517244;0.0;0.07939947397517244
0.46400000000000036;-8752620369.0;-8767044691.0;10.0;3606.0778429775382;3606.0778664305144;0.00025759789559742785;0.07973728202159691;0.0;0.07973728202159691
0.46800000000000036;-8738196055.0;-8752620379.0;10.0;3606.078163267799;3606.07812402841;0.00031894912808638765;0.08007256519704242;0.0;0.08007256519704242
0.47200000000000036;-8723771741.0;-8738196066.0;11.0;3606.0784848885182;3606.078442977538;0.0003802902610914316;0.0804051798013461;0.0;0.0804051798013461
0.47600000000000037;-8709347425.0;-8723771751.0;10.0;3606.0788078339233;3606.078823267799;0.00026162071890212246;0.08073635126493173;0.0;0.08073635126493173
0.48000000000000037;-8694923108.0;-8709347435.0;10.0;3606.079132092186;3606.079084888518;0.0003229454050597269;0.08106456562018138;0.0;0.08106456562018138
0.4840000000000004;-8680498789.0;-8694923118.0;10.0;3606.079457653494;3606.079407833923;0.00032425826248072553;0.08139032706822036;0.0;0.08139032706822036
0.4880000000000004;-8666074469.0;-8680498800.0;11.0;3606.0797845071725;3606.0797320921856;0.00038556130857614335;0.08171341960405698;0.0;0.08171341960405698
0.4920000000000004;-8651650148.0;-8666074480.0;11.0;3606.080112646873;3606.080117653494;0.0003268536784162279;0.08203492518532585;0.0;0.08203492518532585
0.4960000000000004;-8637225826.0;-8651650159.0;11.0;3606.0804420581694;3606.0804445071726;0.0003281397007413034;0.082352824051668;0.0;0.082352824051668
0.5000000000000003;-8622801502.0;-8637225836.0;10.0;3606.0807727373103;3606.0807726468734;0.00026941129590341006;0.08266978522897261;0.0;0.08266978522897261
0.5040000000000003;-8608377177.0;-8622801512.0;10.0;3606.081104669868;3606.0810420581693;0.00033067914091589046;0.08298313946397684;0.0;0.08298313946397684
0.5080000000000003;-8593952850.0;-8608377187.0;10.0;3606.081437845456;3606.08137273731;0.00033193255785590736;0.08329389697792067;0.0;0.08329389697792067
