Zeit[sec];Sollposition[°];Istposition[°];Positionsschleppfehler[°];Sollgeschwindigkeit[°/s];Istgeschwindigkeit[°/s];Geschwindigkeitsdifferenz[°/s];Sollbeschleunigung[°/s*s];Istbeschleunigung[°/s*s];Beschleunigungsdifferenz[°/s*s]
0.0;0.0;-2.0;2.0;-0.0;0.000192;0.0;0.0;0.0;0.0
0.004;0.0;-2.0;2.0;-0.0;0.000192;0.0;0.0;0.0;0.0
0.008;0.0;-2.0;2.0;-0.0;0.000192;0.0;0.0;0.0;0.0
0.012;0.0;-2.0;2.0;-0.0;0.000192;0.0;0.0;0.0;0.0
0.016;0.0;-2.0;2.0;-0.0;0.000192;0.0;0.0;0.0;0.0
0.02;0.0;-2.0;2.0;-0.0;0.000192;0.0;0.0;0.0;0.0
0.024;0.0;-2.0;2.0;-0.0;0.000192;0.0;0.0;0.0;0.0
0.028;0.0;-2.0;2.0;-0.0;0.000192;0.0;0.0;0.0;0.0
0.032;0.0;-2.0;2.0;-0.0;0.000192;0.0;0.0;0.0;0.0
0.036000000000000004;0.0;-2.0;2.0;-0.0;0.000192;0.0;0.0;0.0;0.0
0.04000000000000001;0.0;-2.0;2.0;-0.0;0.000192;0.0;0.0;0.0;0.0
0.04400000000000001;0.0;-2.0;2.0;-0.0;0.000192;0.0;0.0;0.0;0.0
0.048000000000000015;0.0;-2.0;2.0;-0.0;0.000192;0.0;0.0;0.0;0.0
0.05200000000000002;0.0;-2.0;2.0;-0.0;0.000192;0.0;0.0;0.0;0.0
0.05600000000000002;-1094.0;-2.0;2.0;-0.2736145332841592;0.000192;0.0;-68.40363332103979;0.0;-68.40363332103979
0.060000000000000026;-71070.0;-2.0;-1092.0;-17.493960201861228;0.000192;-0.37863853328415925;-4305.086417144267;0.0;-4305.086417144267
0.06400000000000003;-309257.0;-1515.0;-69555.0;-59.54688762736673;-0.3784465332841592;-23.79279366857707;-10513.231856376375;0.0;-10513.231856376375
0.06800000000000003;-909905.0;-98199.0;-211058.0;-150.1619962449049;-24.171240201861227;-55.6372154255055;-22653.777154384545;0.0;-22653.777154384545
0.07200000000000004;-1972972.0;-417432.0;-492473.0;-265.76674042581635;-79.80845562736673;-117.6309486175382;-28901.18604522786;-250.0;-28651.18604522786
0.07600000000000004;-3590934.0;-1207189.0;-765783.0;-404.4903863779635;-197.43940424490492;-141.84250418091145;-34680.911488036785;-750.0;-33930.911488036785
0.08000000000000004;-5976523.0;-2564316.0;-1026618.0;-596.3972951407743;-339.28190842581637;-163.7638059521471;-47976.7271907027;-1666.6666666666667;-46310.06052403604
0.08400000000000005;-9414964.0;-4576498.0;-1400025.0;-859.6101339120594;-503.04571437796346;-227.75398076281078;-65803.20969282127;-2666.6666666666665;-63136.543026154606
0.08800000000000005;-14203988.0;-7499696.0;-1915268.0;-1197.2560029365225;-730.7996951407742;-312.6761667712851;-84411.46725611576;-4083.3333333333335;-80328.13392278244
0.09200000000000005;-20634881.0;-11673599.0;-2530389.0;-1607.723016701825;-1043.4758619120594;-396.69748502446305;-102616.7534413256;-5916.666666666667;-96700.08677465895
0.09600000000000006;-28962424.0;-17434292.0;-3200589.0;-2081.8856861310787;-1440.1733469365224;-474.8062137653026;-118540.66735731345;-8416.666666666666;-110124.00069064679
0.10000000000000006;-39405493.0;-25094210.0;-3868214.0;-2610.7671965587847;-1914.979560701825;-538.2546694292537;-132220.3776069265;-11500.0;-120720.37760692649
0.10400000000000006;-52157525.0;-34907146.0;-4498347.0;-3188.0079026883363;-2453.2342301310787;-589.374278427706;-144310.1765323879;-15083.333333333334;-129226.84319905458
0.10800000000000007;-67371119.0;-47077580.0;-5079945.0;-3803.398209905439;-3042.6085085587847;-633.0741141295516;-153847.5768042757;-19250.0;-134597.5768042757
0.11200000000000007;-85152657.0;-61780310.0;-5590809.0;-4445.38431318353;-3675.6826226883363;-664.4332512171027;-160496.52581952274;-23833.333333333332;-136663.1924861894
0.11600000000000008;-105578895.0;-79140773.0;-6011884.0;-5106.559180524876;-4340.115873905439;-682.4093032780911;-165293.71683533647;-28833.333333333332;-136460.38350200313
0.12000000000000008;-128706107.0;-99230873.0;-6348022.0;-5781.802803109914;-5022.52517718353;-693.4441153413463;-168810.90564625946;-34000.0;-134810.90564625946
0.12400000000000008;-154569435.0;-122094750.0;-6611357.0;-6465.831751724889;-5715.969292524876;-700.5237825850372;-171007.23715374374;-39250.0;-131757.23715374374
0.12800000000000009;-183183561.0;-147760722.0;-6808713.0;-7153.531022475663;-6416.493075109914;-702.9751246149754;-171924.81768769358;-44666.666666666664;-127258.15102102692
0.1320000000000001;-214547534.0;-176238594.0;-6944967.0;-7840.992959239905;-7119.468199724889;-700.7796547507742;-171865.48419106044;-50083.333333333336;-121782.1508577271
0.1360000000000001;-248651903.0;-207519585.0;-7027949.0;-8526.091898639135;-7820.247854475663;-695.4282087642423;-171274.7348498076;-55666.666666666664;-115608.06818314093
0.1400000000000001;-285483497.0;-241582289.0;-7069614.0;-9207.898035718754;-8515.676063239905;-689.0987793992299;-170451.53426990463;-61083.333333333336;-109368.2009365713
0.1440000000000001;-325026089.0;-278401388.0;-7082109.0;-9885.647433928625;-9204.774842639135;-683.0056570796187;-169437.34955246781;-66583.33333333333;-102854.0162191345
0.1480000000000001;-367261234.0;-317952509.0;-7073580.0;-10558.785757148415;-9887.780499718754;-676.9306142098703;-168284.58080494739;-71916.66666666667;-96367.91413828071
0.1520000000000001;-412161051.0;-360211353.0;-7049881.0;-11224.953675955996;-10564.711113928624;-670.8632192197911;-166541.97970189535;-77250.0;-89291.97970189534
0.1560000000000001;-459671927.0;-405153650.0;-7007401.0;-11877.718496191264;-11235.574333148415;-662.0898388075802;-163191.2050588171;-82500.0;-80691.20505881711
0.16000000000000011;-509714576.0;-452744306.0;-6927621.0;-12510.66178969987;-11897.664171955996;-645.1059402352694;-158235.8233771515;-87750.0;-70485.82337715152
0.16400000000000012;-562193838.0;-502915386.0;-6799190.0;-13119.814705832774;-12542.770112191265;-620.6139175086064;-152288.22903322589;-92916.66666666667;-59371.562366559214
0.16800000000000012;-616995242.0;-555568922.0;-6624916.0;-13700.35051092496;-13163.384029699871;-592.4226121329029;-145133.9512730465;-97916.66666666667;-47217.284606379806
0.17200000000000013;-673982028.0;-610592148.0;-6403094.0;-14246.69564616108;-13755.806641832774;-559.2408930921865;-136586.2838090302;-102750.0;-33836.283809030196
0.17600000000000013;-732996120.0;-667852338.0;-6129690.0;-14753.522431537507;-14315.047534924961;-520.0983512361199;-126706.6963441066;-107333.33333333333;-19373.363010773275
0.18000000000000013;-793853693.0;-727192921.0;-5803199.0;-15214.392383795846;-14835.14588616108;-475.4836493764269;-115217.48806458482;-111750.0;-3467.4880645848134
0.18400000000000014;-856347271.0;-788435439.0;-5418254.0;-15623.393830901356;-15310.629535537508;-423.91523225833953;-102250.3617763773;-115750.0;13499.638223622696
0.18800000000000014;-920263114.0;-851373618.0;-4973653.0;-15978.959956563882;-15734.544767795847;-366.31975110550775;-88891.53141563156;-119500.0;30608.46858436844
0.19200000000000014;-985399773.0;-915777076.0;-4486038.0;-16284.164154663109;-16100.864518901355;-308.75508566252756;-76301.04952480679;-122750.0;46448.95047519321
0.19600000000000015;-1051567722.0;-981415554.0;-3984219.0;-16541.98636535232;-16409.619604563883;-257.029574099226;-64455.55267230293;-125583.33333333333;61127.780661030396
0.20000000000000015;-1118582722.0;-1048082150.0;-3485572.0;-16753.749108326487;-16666.64917866311;-209.95209868921302;-52940.68574354151;-127750.0;74809.31425645849
0.20400000000000015;-1186272360.0;-1115588555.0;-2994167.0;-16922.408900504688;-16876.60127735232;-164.58786297416373;-42164.94804455033;-129333.33333333333;87168.385288783
0.20800000000000016;-1254481167.0;-1183753311.0;-2519049.0;-17052.200960880276;-17041.189140326485;-123.04846417820227;-32448.015093897084;-130166.66666666667;97718.6515727696
0.21200000000000016;-1323072594.0;-1252410261.0;-2070906.0;-17147.855889421215;-17164.237604504688;-86.77033237558862;-23913.732135234568;-130333.33333333333;106419.60119809877
0.21600000000000016;-1391936862.0;-1321414292.0;-1658302.0;-17216.066030310245;-17251.007936880276;-56.04494454093947;-17052.535222257575;-129833.33333333333;112780.79811107575
0.22000000000000017;-1460989983.0;-1390642503.0;-1294359.0;-17263.27952862303;-17307.052881421216;-33.27161288902789;-11803.374578195871;-128750.0;116946.62542180413
0.22400000000000017;-1530164137.0;-1460003800.0;-986183.0;-17293.537546338954;-17340.324494310244;-17.628602312783187;-7564.504428981309;-126833.33333333333;119268.82890435202
0.22800000000000017;-1599404166.0;-1529435612.0;-728525.0;-17310.006497015103;-17357.953096623027;-5.522849715925986;-4117.237669037422;-124000.0;119882.76233096258
0.23200000000000018;-1668667139.0;-1598889515.0;-514651.0;-17315.74237804648;-17363.475946338953;4.062953323849797;-1433.9702578445213;-120416.66666666667;118982.69640882214
0.23600000000000018;-1737920165.0;-1668327166.0;-339973.0;-17313.25582103307;-17359.412993015103;11.033206968622835;621.6392533524413;-116333.33333333333;116954.97258668576
0.24000000000000019;-1807138478.0;-1737720685.0;-199480.0;-17304.577351374053;-17348.37978604648;15.973885013409017;2169.6174147546117;-111750.0;113919.61741475461
0.2440000000000002;-1876303281.0;-1807050308.0;-88170.0;-17291.19998551554;-17332.40590103307;19.364229659018747;3344.341464628087;-106750.0;110094.34146462809
0.2480000000000002;-1945399386.0;-1876302474.0;-807.0;-17274.025392397914;-17313.041671374052;21.76421385851063;4293.648279406625;-101416.66666666667;105710.3149460733
0.25200000000000017;-2014413918.0;-1945467583.0;68197.0;-17253.632096370955;-17291.27745751554;23.798977117628965;5098.324006739858;-96000.0;101098.32400673986
0.25600000000000017;-2083329992.0;-2014537496.0;123578.0;-17229.017758067137;-17267.478480397913;25.709872026956873;6153.584575954483;-90416.66666666667;96570.25124262116
0.2600000000000002;-2152142497.0;-2083504570.0;174578.0;-17203.125555200226;-17241.768608370956;29.51033830381857;6473.050716727812;-84750.0;91223.05071672781
0.2640000000000002;-2220845278.0;-2152353603.0;211106.0;-17175.69424819635;-17212.258270067137;29.398890866912552;6857.826750969252;-79083.33333333333;85941.16008430258
0.2680000000000002;-2289433954.0;-2221085040.0;239762.0;-17147.168165748524;-17182.859379200225;30.182283003876364;7131.520611956148;-73333.33333333333;80464.85394528948
0.2720000000000002;-2357905980.0;-2289695748.0;261794.0;-17118.0056652668;-17152.67709619635;30.6411544478251;7290.625120431287;-67750.0;75040.62512043129
0.2760000000000002;-2426261454.0;-2358183891.0;277911.0;-17088.86792659753;-17122.035941748523;30.70973248172595;7284.434667317328;-62083.333333333336;69367.76800065066
0.2800000000000002;-2494503353.0;-2426549195.0;287741.0;-17060.473843211905;-17091.326209266797;30.081418669265986;7098.520846406245;-56583.333333333336;63681.85417973958
0.2840000000000002;-2562637027.0;-2494794174.0;290821.0;-17033.41762477467;-17061.24479059753;28.689763385627884;6764.054609308914;-51000.0;57764.054609308914
0.2880000000000002;-2630670355.0;-2562924394.0;287367.0;-17008.331301106045;-17032.555027211904;26.72463443723609;6271.580917155916;-45500.0;51771.580917155916
0.2920000000000002;-2698613579.0;-2630947715.0;277360.0;-16985.805155623646;-17005.830392774667;24.125651668622595;5631.536370599861;-40166.666666666664;45798.203037266525
0.2960000000000002;-2766478774.0;-2698874533.0;260954.0;-16966.29795840803;-16981.704741106045;20.951169482399564;4876.799303903681;-34916.666666666664;39793.465970570345
0.3000000000000002;-2834279807.0;-2766717547.0;238773.0;-16950.257491877856;-16960.753571623645;17.37782121561395;4010.116632543941;-29916.666666666668;33926.78329921061
0.3040000000000002;-2902032091.0;-2834491050.0;211243.0;-16938.07016791859;-16943.37575040803;13.39758653017634;3046.830989816044;-25083.333333333332;28130.164323149376
0.3080000000000002;-2969752431.0;-2902210962.0;178871.0;-16930.08422118305;-16929.978163877855;9.079611959263275;1996.4866838854505;-20666.666666666668;22663.15335055212
0.3120000000000002;-3037459476.0;-2969894556.0;142125.0;-16926.760277634286;-16920.89855191859;4.458330735542404;830.9858871907636;-16500.0;17330.985887190764
0.3160000000000002;-3105173570.0;-3037560316.0;100840.0;-16928.522798122885;-16916.44022118305;-0.6394164512385032;-440.6301221497415;-12750.0;12309.369877850258
0.32000000000000023;-3172916351.0;-3105228634.0;55064.0;-16935.69440830428;-16917.079637634288;-6.157016488596128;-1792.9025453486247;-9416.666666666666;7623.764121318041
0.32400000000000023;-3240711017.0;-3172921580.0;5229.0;-16948.66566962619;-16923.236654122884;-11.955770181397384;-3242.8153304772422;-6583.333333333333;3340.518002856091
0.32800000000000024;-3308582340.0;-3240662349.0;-48668.0;-16967.82997298175;-16935.19242430428;-18.145373321905936;-4791.07583889072;-4166.666666666667;-624.4091722240528
0.33200000000000024;-3376550794.0;-3308475700.0;-106640.0;-16992.112708229623;-16953.337797626187;-24.72961535556533;-6070.683811967683;-2166.6666666666665;-3904.0171453010166
0.33600000000000024;-3444622979.0;-3376387969.0;-162825.0;-17018.04532833749;-16978.067412981753;-29.676495247869752;-6483.155026967324;-666.6666666666666;-5816.488360300657
0.34000000000000025;-3512792143.0;-3444418944.0;-204035.0;-17042.290248779143;-17007.743908229622;-29.888780107870843;-6061.230110412907;333.3333333333333;-6394.56344374624
0.34400000000000025;-3581036729.0;-3512569474.0;-222669.0;-17061.145699894358;-17037.632688337493;-26.033784441649914;-4713.862778803559;1083.3333333333333;-5797.196112136892
0.34800000000000025;-3649306998.0;-3580824139.0;-212590.0;-17067.566370565994;-17063.666472779143;-17.887867115216068;-1605.1676679089724;1583.3333333333333;-3188.5010012423054
0.35200000000000026;-3717523539.0;-3649150356.0;-156642.0;-17054.134499258533;-17081.55433989436;-1.049662671633996;3357.967826865206;1916.6666666666667;1441.3011601985393
0.35600000000000026;-3785570528.0;-3717480772.0;-42767.0;-17011.746525875027;-17082.604002565993;24.363871307461523;10596.993345876399;2000.0;8596.993345876399
0.36000000000000026;-3853312763.0;-3785713732.0;143204.0;-16935.557987530676;-17058.24013125853;60.241189383505116;19047.13458608785;2166.6666666666665;16880.467919421182
0.36400000000000027;-3920596392.0;-3853705727.0;392964.0;-16820.90644775172;-16997.998941875027;100.16549834435136;28662.884944738835;2416.6666666666665;26246.218278072167
0.36800000000000027;-3987258365.0;-3921297060.0;700668.0;-16665.492342480138;-16897.833443530675;144.19112377895362;38853.52631789556;2916.6666666666665;35936.85965122889
0.3720000000000003;-4053114082.0;-3988311629.0;1053264.0;-16463.928524896117;-16753.64231975172;189.26332127158457;50390.95439600533;3583.3333333333335;46807.62106267199
0.3760000000000003;-4117947879.0;-4054569144.0;1455062.0;-16208.448559218867;-16564.378998480137;240.1364255840199;63869.99141931256;4666.666666666667;59203.32475264589
0.3800000000000003;-4181559223.0;-4119866114.0;1918235.0;-15902.835264460526;-16324.242572896117;299.94457367725045;76403.32368958525;6000.0;70403.32368958525
0.3840000000000003;-4243757509.0;-4183963305.0;2404082.0;-15549.570644295158;-16024.297999218867;352.25460675834074;88316.15504134198;7750.0;80566.15504134198
0.3880000000000003;-4304364657.0;-4246651478.0;2893969.0;-15151.78638850574;-15672.043392460526;400.29377216536886;99446.06394735456;9833.333333333334;89612.73061402123
0.3920000000000003;-4363212857.0;-4307738476.0;3373819.0;-14712.049201528629;-15271.749620295157;443.84985578941814;109934.29674427761;12416.666666666666;97517.63007761096
0.3960000000000003;-4420145276.0;-4367050075.0;3837218.0;-14233.104006318294;-14827.899764505739;484.2234909771105;119736.29880258386;15250.0;104486.29880258386
0.4000000000000003;-4475016204.0;-4424424780.0;4279504.0;-13717.73153526906;-14343.676273528628;521.4046512103341;128843.11776230833;18500.0;110343.11776230833
0.4040000000000003;-4527687326.0;-4479713866.0;4697662.0;-13167.779749956642;-13822.271622318294;555.5156390492339;137487.9463281045;22000.0;115487.9463281045
0.4080000000000003;-4578022872.0;-4532780889.0;5093563.0;-12583.88586275438;-13266.75598326906;587.958281312418;145973.47180056566;25916.666666666668;120056.805133899
0.4120000000000003;-4625887316.0;-4583496079.0;5473207.0;-11966.11058690716;-12678.797701956642;620.3397112022631;154443.81896180494;30000.0;124443.81896180494
0.4160000000000003;-4671144443.0;-4631729910.0;5842594.0;-11314.281181478555;-12058.45799075438;653.2364278472196;162957.35135715132;34333.333333333336;128624.01802381797
0.4200000000000003;-4713655661.0;-4677350796.0;6206353.0;-10627.803922736093;-11405.22156290716;686.750269428605;171619.31468561533;38916.666666666664;132702.64801894868
0.4240000000000003;-4753279154.0;-4720224681.0;6569020.0;-9905.872863187229;-10718.471293478555;721.293290742462;180482.76488721604;43833.333333333336;136649.4315538827
0.4280000000000003;-4789872127.0;-4760213393.0;6934239.0;-9148.242758340799;-9997.178002736093;756.9920835488647;189407.52621160756;49000.0;140407.52621160756
0.43200000000000033;-4823294591.0;-4797174136.0;7302009.0;-8355.615519992856;-9240.185919187228;792.9360248464291;198156.80958698568;54500.0;143656.80958698568
0.43600000000000033;-4853410136.0;-4830963135.0;7668544.0;-7528.886025465884;-8447.249894340799;827.8145983479426;206682.37363174307;60250.0;146432.37363174307
0.44000000000000034;-4880110421.0;-4861440876.0;8030740.0;-6675.070723803045;-7619.4352959928565;861.5003105269725;213453.8254157096;66416.66666666667;147037.15874904295
0.44400000000000034;-4903360429.0;-4888472615.0;8362194.0;-5812.501868382201;-6757.934985465884;885.6348856628383;215642.21385521113;72750.0;142892.21385521113
0.44800000000000034;-4923200452.0;-4911961815.0;8601386.0;-4960.0056070761;-5872.300099803046;885.5312874208448;213124.06532652516;79416.66666666667;133707.3986598585
0.45200000000000035;-4939730442.0;-4931908890.0;8708438.0;-4132.49728280883;-4986.768812382201;862.7732533061007;206877.08106681748;86250.0;120627.08106681748
0.45600000000000035;-4953125622.0;-4948404872.0;8674430.0;-3348.7948244406116;-4123.9955590761;824.2435562672699;195925.61459205468;93250.0;102675.61459205467
0.46000000000000035;-4963641557.0;-4961603880.0;8478258.0;-2628.9835377313016;-3299.75200280883;764.8699463682187;179952.8216773275;100000.0;79952.8216773275
0.46400000000000036;-4971592854.0;-4971743408.0;8101851.0;-1987.824264809397;-2534.8820564406114;683.67621470931;160289.81823047617;106583.33333333333;53706.48489714283
0.46800000000000036;-4977338560.0;-4979148231.0;7555377.0;-1436.4262614076997;-1851.2058417313015;588.6977689219045;137849.50085042432;112583.33333333333;25266.167517090977
0.47200000000000036;-4981284219.0;-4984198263.0;6859703.0;-986.4147547546555;-1262.508072809397;484.6132994016972;112502.87666326105;118166.66666666667;-5663.790003405623
0.47600000000000037;-4983853135.0;-4987309842.0;6025623.0;-642.2288720780998;-777.8947734076997;369.9398266530443;86046.47066913893;122916.66666666667;-36870.19599752774
0.48000000000000037;-4985398027.0;-4988941661.0;5088526.0;-386.22318999345356;-407.95494675465545;254.22457067655563;64001.42052116156;126916.66666666667;-62915.24614550511
0.4840000000000004;-4986119374.0;-4989556582.0;4158555.0;-180.33655158032667;-153.73037607809982;166.7284660846463;51471.659603281725;129916.66666666667;-78445.00706338495
0.4880000000000004;-4986357621.0;-4989504590.0;3385216.0;-59.56184901469122;12.998090006546477;131.6460944131269;30193.675641408863;132000.0;-101806.32435859114
0.4920000000000004;-4986429215.0;-4988926014.0;2568393.0;-17.898611823749814;144.64418441967337;42.35969456563544;10415.809297735352;133250.0;-122834.19070226465
0.4960000000000004;-4986489454.0;-4988177999.0;1748784.0;-15.059618831485924;187.0038789853088;-37.01922680905861;709.7482480659725;133583.33333333334;-132873.58508526738
0.5000000000000003;-4986459032.0;-4987578061.0;1088607.0;7.605435467896336;149.9846521762502;-60.53799900773612;5666.263574845565;133166.66666666666;-127500.40309182109
0.5040000000000003;-4986451353.0;-4987220275.0;761243.0;1.9198464144160192;89.44665316851408;-8.76188970061773;-1421.3972633700791;131833.33333333334;-133254.73059670342
0.5080000000000003;-4986456001.0;-4986897536.0;446183.0;-1.162030597801651;80.68476346789635;-35.931349053480325;-770.4692530544175;130166.66666666667;-130937.13591972108
