Zeit[sec];Sollposition[°];Istposition[°];Positionsschleppfehler[°];Sollgeschwindigkeit[°/s];Istgeschwindigkeit[°/s];Geschwindigkeitsdifferenz[°/s];Sollbeschleunigung[°/s*s];Istbeschleunigung[°/s*s];Beschleunigungsdifferenz[°/s*s]
0.0;-9979199999.0;-9979199997.0;-2.0;0.0;-0.00011999999999999999;0.0;0.0;0.0;0.0
0.004;-9979199999.0;-9979199997.0;-2.0;0.0;-0.00011999999999999999;0.0;0.0;0.0;0.0
0.008;-9979199999.0;-9979199997.0;-2.0;0.0;-0.00011999999999999999;0.0;0.0;0.0;0.0
0.012;-9979199999.0;-9979199997.0;-2.0;0.0;-0.00011999999999999999;0.0;0.0;0.0;0.0
0.016;-9979199999.0;-9979199997.0;-2.0;0.0;-0.00011999999999999999;0.0;0.0;0.0;0.0
0.02;-9979199999.0;-9979199997.0;-2.0;0.0;-0.00011999999999999999;0.0;0.0;0.0;0.0
0.024;-9979199999.0;-9979199997.0;-2.0;0.0;-0.00011999999999999999;0.0;0.0;0.0;0.0
0.028;-9979199999.0;-9979199997.0;-2.0;0.0;-0.00011999999999999999;0.0;0.0;0.0;0.0
0.032;-9979199999.0;-9979199997.0;-2.0;0.0;-0.00011999999999999999;0.0;0.0;0.0;0.0
0.036000000000000004;-9979199999.0;-9979199997.0;-2.0;0.0;-0.00011999999999999999;0.0;0.0;0.0;0.0
0.04000000000000001;-9979199999.0;-9979199997.0;-2.0;0.0;-0.00011999999999999999;0.0;0.0;0.0;0.0
0.04400000000000001;-9979199999.0;-9979199997.0;-2.0;0.0;-0.00011999999999999999;0.0;0.0;0.0;0.0
0.048000000000000015;-9979199999.0;-9979199997.0;-2.0;0.0;-0.00011999999999999999;0.0;0.0;0.0;0.0
0.05200000000000002;-9979199999.0;-9979199997.0;-2.0;0.0;-0.00011999999999999999;0.0;0.0;0.0;0.0
0.05600000000000002;-9979198927.0;-9979199997.0;-2.0;0.2678849122146435;-0.00011999999999999999;0.0;66.97122805366088;0.0;66.97122805366088
0.060000000000000026;-9979083337.0;-9979199997.0;1070.0;28.897520917334017;-0.00011999999999999999;0.3322049122146435;7157.409001279843;0.0;7157.409001279843
0.06400000000000003;-9978755776.0;-9979198669.0;115332.0;81.89025741645816;0.3320849122146435;35.48535600511937;13248.184124781035;0.0;13248.184124781035
0.06800000000000003;-9978019478.0;-9979055400.0;299624.0;184.0744989947408;35.81744091733402;64.05025649912415;25546.06039457066;83.33333333333333;25462.727061237325
0.07200000000000004;-9976752642.0;-9978655930.0;636452.0;316.708979976718;99.86769741645816;122.39392157828263;33158.620245494305;333.3333333333333;32825.28691216097
0.07600000000000004;-9974886646.0;-9977766884.0;1014242.0;466.4988154226244;222.2616189947408;155.3018809819772;37447.45886147659;916.6666666666666;36530.792194809925
0.08000000000000004;-9972244124.0;-9976256631.0;1369985.0;660.6306403138796;377.563499976718;171.13441544590643;48532.956222813795;1750.0;46782.956222813795
0.08400000000000005;-9968569790.0;-9974061840.0;1817716.0;918.5834257685893;548.6979154226244;220.9956848912551;64488.196363677445;3000.0;61488.196363677445
0.08800000000000005;-9963569793.0;-9970983066.0;2413276.0;1249.9992702651537;769.6936003138795;293.6863854547099;82853.96112414107;4416.666666666667;78437.29445747442
0.09200000000000005;-9956977729.0;-9966729547.0;3159754.0;1648.0157298704935;1063.3799857685894;376.2045244965641;99504.11490133496;6250.0;93254.11490133496
0.09600000000000006;-9948586834.0;-9960971209.0;3993480.0;2097.7236368400727;1439.5845102651535;448.0400196053399;112426.97674239479;8500.0;103926.97674239479
0.10000000000000006;-9938203862.0;-9953420711.0;4833877.0;2595.7430934890003;1887.6245298704935;500.1317269695792;124504.86416223191;11416.666666666666;113088.19749556524
0.10400000000000006;-9925639248.0;-9943869686.0;5665824.0;3141.1532565560155;2387.7562568400726;547.9362766489276;136352.5407667538;14916.666666666666;121435.87410008714
0.10800000000000007;-9910749365.0;-9932126916.0;6487668.0;3722.470566243571;2935.692533489;594.7208030670154;145329.32742188883;18750.0;126579.32742188883
0.11200000000000007;-9893421658.0;-9918005263.0;7255898.0;4331.92662934413;3530.4133365560156;627.4111096875549;152364.0157751397;23083.333333333332;129280.68244180638
0.11600000000000008;-9873551024.0;-9901373966.0;7952308.0;4967.658182638314;4157.8244462435705;651.2406631005588;158932.88832354618;27666.666666666668;131266.22165687953
0.12000000000000008;-9851052516.0;-9882137706.0;8586682.0;5624.626592911204;4809.065109344129;673.7939932941854;164242.10256822244;32583.333333333332;131658.7692348891
0.12400000000000008;-9825874625.0;-9860206270.0;9153754.0;6294.472627442348;5482.859102638315;690.9927302728893;167461.50863278605;37583.333333333336;129878.1752994527
0.12800000000000009;-9797999214.0;-9835510863.0;9636238.0;6968.852243382789;6173.851832911204;698.7950745311446;168594.90398511026;42833.333333333336;125761.57065177691
0.1320000000000001;-9767430892.0;-9808020276.0;10021062.0;7642.08036744635;6872.6469074423485;697.4690559404407;168307.03101589007;48250.0;120057.03101589007
0.1360000000000001;-9734183461.0;-9777739813.0;10308921.0;8311.857166782955;7570.115963382789;690.4996640635609;167444.19983415128;53666.666666666664;113777.53316748461
0.1400000000000001;-9698273584.0;-9744697351.0;10513890.0;8977.469015544104;8260.61562744635;682.0749393366041;166402.96219028733;59166.666666666664;107236.29552362066
0.1440000000000001;-9659720188.0;-9708926589.0;10653005.0;9638.348372252802;8942.690566782954;673.9587487611498;165219.83917717444;64500.0;100719.83917717444
0.1480000000000001;-9618540640.0;-9670459992.0;10739804.0;10294.886483381635;9616.649315544104;666.087296708698;164134.52778220834;69916.66666666667;94217.86111554169
0.1520000000000001;-9574767647.0;-9629329046.0;10788406.0;10943.247749172893;10282.736612252802;659.4542311288333;162090.31644781452;75083.33333333333;87006.9831144812
0.1560000000000001;-9528468427.0;-9585560283.0;10792636.0;11574.804580525186;10942.190843381635;648.6150657912585;157889.20783807317;80333.33333333333;77555.87450473983
0.16000000000000011;-9479721260.0;-9539197060.0;10728633.0;12186.791023578484;11590.805909172894;627.7166513522916;152996.61076332448;85416.66666666667;67579.94409665783
0.16400000000000012;-9428605701.0;-9490322970.0;10601710.0;12778.88929800023;12218.522560525185;604.3710630532987;148024.56860543633;90500.0;57524.56860543635
0.16800000000000012;-9375223091.0;-9439031396.0;10425695.0;13345.651839680142;12822.893623578484;581.537374421745;141690.6354199782;95416.66666666667;46273.968753311536
0.17200000000000013;-9319696404.0;-9385413673.0;10190582.0;13881.671038653965;13404.430998000229;552.6557616799128;134004.7997434558;100083.33333333333;33921.46641012248
0.17600000000000013;-9262172549.0;-9329585326.0;9888922.0;14380.963006921982;13957.086759680142;517.9195989738237;124822.99206700418;104666.66666666667;20156.325400337508
0.18000000000000013;-9202832501.0;-9271685301.0;9512752.0;14835.01128337511;14475.006358653965;476.7217682680166;113512.06911328199;108916.66666666667;4595.402446615324
0.18400000000000014;-9141878409.0;-9211878389.0;9045888.0;15238.522429545908;14951.728126921982;426.03643645312695;100877.7865426996;113000.0;-12122.213457300404
0.18800000000000014;-9079505783.0;-9150367331.0;8488922.0;15593.155601329252;15377.764563375109;370.0931861707995;88658.29294583591;116666.66666666667;-28008.37372083076
0.19200000000000014;-9015892664.0;-9087375901.0;7870118.0;15903.279058313363;15747.857749545909;317.50493178334364;77530.8642460277;120000.0;-42469.135753972296
0.19600000000000015;-8951221134.0;-9023114451.0;7221787.0;16167.881844230507;16065.362681329252;271.2235969841113;66150.69647928613;122833.33333333333;-56682.6368540472
0.20000000000000015;-8885681467.0;-8957768106.0;6546972.0;16384.91590652104;16336.586278313363;224.11388591714422;54258.51557263332;125000.0;-70741.48442736668
0.20400000000000015;-8819450890.0;-8891525306.0;5843839.0;16557.64334215013;16560.700164230508;174.84608229053265;43181.858907272726;126583.33333333333;-83401.4744260606
0.20800000000000016;-8752691614.0;-8824583122.0;5132232.0;16689.818256649796;16735.54624652104;130.0310156290907;33043.728624916184;127416.66666666667;-94372.93804175049
0.21200000000000016;-8685544376.0;-8757120813.0;4429199.0;16786.80877398677;16865.57726215013;89.99293449966353;24247.629334243356;127666.66666666667;-103419.03733242332
0.21600000000000016;-8618115290.0;-8689298533.0;3754157.0;16857.270652612282;16955.570196649795;56.48799733697524;17615.46965637808;127250.0;-109634.53034362191
0.22000000000000017;-8550488731.0;-8621250301.0;3135011.0;16906.638871974636;17012.05819398677;33.31311862551229;12342.05484058839;126166.66666666667;-113824.61182607828
0.22400000000000017;-8482738935.0;-8553068816.0;2580085.0;16937.448299933;17045.371312612282;16.072659362354898;7702.356989590953;124333.33333333333;-116630.97634374237
0.22800000000000017;-8414925660.0;-8484823041.0;2084106.0;16953.31790634662;17061.443971974637;1.050687958362687;3967.401603405051;121666.66666666667;-117699.26506326161
0.23200000000000018;-8347094192.0;-8416573063.0;1647403.0;16957.86618577853;17062.494659933;-10.332573586380022;1137.0698579776217;118416.66666666667;-117279.59680868905
0.23600000000000018;-8279278123.0;-8348364415.0;1270223.0;16954.016414810907;17052.16208634662;-18.082520568088512;-962.4427419057611;114500.0;-115462.44274190576
0.24000000000000019;-8211501059.0;-8280228097.0;949974.0;16944.26525833242;17034.07956577853;-23.064710967624706;-2437.7891196218116;110166.66666666667;-112604.45578628848
0.2440000000000002;-8143780315.0;-8212184038.0;682979.0;16930.18528499783;17011.014854810906;-25.770856478487985;-3519.9933336471076;105333.33333333333;-108853.32666698043
0.2480000000000002;-8076129909.0;-8144243063.0;462748.0;16912.600633860005;16985.24399833242;-27.29383333458827;-4396.162784456465;100333.33333333333;-104729.4961177898
0.25200000000000017;-8008561590.0;-8076411263.0;281354.0;16892.078948378927;16957.95016499783;-28.468291137825872;-5130.421370269687;95000.0;-100130.42137026969
0.25600000000000017;-7941085983.0;-8008693336.0;131746.0;16868.90099536991;16929.481873860004;-29.498165481076285;-5794.488252254268;89666.66666666667;-95461.15491892095
0.2600000000000002;-7873711901.0;-7941093402.0;7419.0;16843.519544748233;16899.983708378928;-30.637573009018524;-6345.362655419194;84000.0;-90345.36265541919
0.2640000000000002;-7806444938.0;-7873616018.0;-95883.0;16816.73995294379;16869.34613536991;-31.579570621677703;-6694.897951110761;78333.33333333333;-85028.23128444409
0.2680000000000002;-7739289098.0;-7806264952.0;-179986.0;16788.959231053122;16837.76656474823;-31.825771804440592;-6945.180472666834;72666.66666666667;-79611.8471393335
0.2720000000000002;-7672247120.0;-7739041189.0;-247909.0;16760.493696616784;16805.94079294379;-31.85610189066938;-7116.383609084551;67000.0;-74116.38360908456
0.2760000000000002;-7605318672.0;-7671944851.0;-302269.0;16732.111182668843;16774.08469105312;-31.7271344363362;-7095.628486985333;61500.0;-68595.62848698534
0.2800000000000002;-7538500927.0;-7604975421.0;-343251.0;16704.43559355437;16742.357556616786;-30.841433947942278;-6918.897278617806;55916.666666666664;-62835.56394528447
0.2840000000000002;-7471788964.0;-7538129357.0;-371570.0;16677.989845668686;16711.516122668843;-29.374729114471847;-6611.436971421426;50500.0;-57111.436971421426
0.2880000000000002;-7405174977.0;-7471400792.0;-388172.0;16653.496130865107;16682.14139355437;-27.441867885685497;-6123.428700894692;45083.333333333336;-51206.76203422803
0.2920000000000002;-7338648948.0;-7404781994.0;-392983.0;16631.506405482076;16654.699525668686;-24.782374803577113;-5497.431345757832;39833.333333333336;-45330.76467909117
0.2960000000000002;-7272199156.0;-7338262326.0;-386622.0;16612.447058565303;16629.91715086511;-21.608065383032226;-4764.836729193121;34750.0;-39514.83672919312
0.3000000000000002;-7205811893.0;-7271829090.0;-370066.0;16596.81494374944;16608.309085482077;-18.06598691677209;-3908.0287039660107;29833.333333333332;-33741.36203729935
0.3040000000000002;-7139472102.0;-7205468118.0;-343775.0;16584.94698263011;16590.243098565305;-14.054654815863614;-2966.9902798323164;25083.333333333332;-28050.32361316565
0.3080000000000002;-7073163315.0;-7139163365.0;-308737.0;16577.196158546816;16576.18844374944;-9.765681119330111;-1937.706020823498;20666.666666666668;-22604.372687490166
0.3120000000000002;-7006866968.0;-7072897674.0;-265641.0;16574.085758110614;16566.42276263011;-5.165064083295874;-777.6001090505815;16500.0;-17277.60010905058
0.3160000000000002;-6940563260.0;-7006652644.0;-214324.0;16575.926216712036;16561.257698546815;-0.03138043620128883;460.11465035553556;12750.0;-12289.885349644464
0.32000000000000023;-6874231436.0;-6940407739.0;-155521.0;16582.955227390372;16561.226318110614;5.368638601423299;1757.252669583977;9416.666666666666;-7659.413997082689
0.32400000000000023;-6807849025.0;-6874141360.0;-90076.0;16595.60192859001;16566.594956712037;10.95571067833589;3161.6752999098026;6500.0;-3338.3247000901974
0.32800000000000024;-6741392163.0;-6807831158.0;-17867.0;16614.21472179773;16577.550667390373;16.979241199638636;4653.1983019294785;4083.3333333333335;569.864968596145
0.33200000000000024;-6674845076.0;-6741453039.0;60876.0;16636.771049820458;16594.52990859001;23.337373207716155;5639.082005682212;2000.0;3639.082005682212
0.33600000000000024;-6608208611.0;-6674981570.0;136494.0;16659.115566923;16617.867281797728;27.093408022730728;5586.129275635358;416.6666666666667;5169.462608968691
0.34000000000000025;-6541490320.0;-6608401728.0;193117.0;16679.571858226234;16644.96068982046;25.74189710253995;5114.072825808762;-833.3333333333334;5947.406159142095
0.34400000000000025;-6474710498.0;-6541718918.0;228598.0;16694.954729661742;16670.702586923;22.58515130323576;3845.717858876924;-1666.6666666666667;5512.384525543591
0.34800000000000025;-6407921248.0;-6474945768.0;235270.0;16697.311663628298;16693.287738226234;15.783191435508343;589.2334916388791;-2083.3333333333335;2672.5668249722125
0.35200000000000026;-6341197254.0;-6408109485.0;188237.0;16680.99761230906;16709.070929661742;-0.4650460334451054;-4078.5128298093696;-2416.6666666666665;-1661.846163142703
0.35600000000000026;-6274632657.0;-6341275062.0;77808.0;16641.148557797693;16708.605883628297;-22.939791319236974;-9962.263627841821;-2583.3333333333335;-7378.930294508487
0.36000000000000026;-6208354116.0;-6274532398.0;-100259.0;16569.63451656245;16685.66609230906;-50.533074511367886;-17878.51030881029;-2833.3333333333335;-15045.176975476958
0.36400000000000027;-6142516008.0;-6207991866.0;-362250.0;16459.526074959478;16635.133017797692;-87.23350123524142;-27527.110400743368;-3000.0;-24527.110400743368
0.36800000000000027;-6077288008.0;-6141800268.0;-715740.0;16306.999421737593;16547.89951656245;-131.3178416029732;-38131.66330547119;-3333.3333333333335;-34798.32997213786
0.3720000000000003;-6012850616.0;-6076133942.0;-1154066.0;16109.347091632004;16416.581674959478;-178.82621322188425;-49413.082526397375;-3916.6666666666665;-45496.41585973071
0.3760000000000003;-5949396089.0;-6011182921.0;-1667695.0;15863.630934421286;16237.755461737594;-228.4700701055899;-61429.039302679485;-4750.0;-56679.039302679485
0.3800000000000003;-5887119917.0;-5947145780.0;-2250309.0;15569.04235772127;16009.285391632004;-280.67299721071686;-73647.14417500408;-6000.0;-67647.14417500408
0.3840000000000003;-5826207629.0;-5884231331.0;-2888586.0;15228.071356732964;15728.612394421287;-332.88519670001733;-85242.7502470764;-7500.0;-77742.7502470764
0.3880000000000003;-5766835771.0;-5822648423.0;-3559206.0;14842.963661661484;15395.72719772127;-381.2082009883052;-96276.9237678699;-9500.0;-86776.9237678699
0.3920000000000003;-5709173434.0;-5762590348.0;-4245423.0;14415.583649956528;15014.518996732964;-426.2807150714798;-106845.00292623897;-11833.333333333334;-95011.66959290564
0.3960000000000003;-5653377521.0;-5704237395.0;-4936039.0;13948.977464399073;14588.238281661485;-468.8169717049568;-116651.54638936382;-14583.333333333334;-102068.2130560305
0.4000000000000003;-5599592624.0;-5647759710.0;-5617811.0;13446.223756910193;14119.421309956528;-507.51250555745537;-125688.42687222014;-17666.666666666668;-108021.76020555347
0.4040000000000003;-5547955822.0;-5593312075.0;-6280549.0;12909.199924440727;13611.908804399072;-542.51798748888;-134255.9581173664;-21083.333333333332;-113172.62478403306
0.4080000000000003;-5498601330.0;-5541034512.0;-6921310.0;12338.622281260412;13069.390816910192;-575.469492469465;-142644.4107950788;-24833.333333333332;-117811.07746174544
0.4120000000000003;-5451661695.0;-5491058827.0;-7542503.0;11734.908259416921;12493.921324440727;-607.8492231803157;-150928.50546087266;-28833.333333333332;-122095.17212753932
0.4160000000000003;-5407269426.0;-5443514539.0;-8147156.0;11098.066599946562;11886.072101260412;-639.9932018434902;-159210.41486758986;-33083.333333333336;-126127.08153425652
0.4200000000000003;-5365560059.0;-5398530224.0;-8739202.0;10427.341498200882;11246.078899416922;-672.3644194703593;-167681.27543642005;-37583.333333333336;-130097.94210308671
0.4240000000000003;-5326672960.0;-5356235367.0;-9324692.0;9721.774091594249;10573.714479946562;-705.85450174568;-176391.85165165827;-42333.333333333336;-134058.51831832493
0.4280000000000003;-5290748283.0;-5316763928.0;-9909032.0;8981.1689183436;9867.859978200882;-740.6278066066334;-185151.29331266234;-47416.666666666664;-137734.62664599568
0.43200000000000033;-5257923640.0;-5280255000.0;-10493283.0;8206.16037646846;9127.232171594249;-775.66023325065;-193752.13546878466;-52750.0;-141002.13546878466
0.43600000000000033;-5228335203.0;-5246848713.0;-11074927.0;7397.108856622884;8351.571938343599;-809.9071818751381;-202262.8799613942;-58416.666666666664;-143846.21329472755
0.44000000000000034;-5202082637.0;-5216682054.0;-11653149.0;6563.141265878572;7541.664756468461;-843.7448398455772;-208491.8976860779;-64333.333333333336;-144158.56435274455
0.44400000000000034;-5179187346.0;-5189890375.0;-12192262.0;5723.8225252026;6697.919916622884;-866.3143707443114;-209829.6851689929;-70583.33333333333;-139246.3518356596
0.44800000000000034;-5159617798.0;-5166563953.0;-12623393.0;4892.386639914454;5831.605545878572;-865.1866006759719;-207858.97132203673;-77083.33333333333;-130775.6379887034
0.45200000000000035;-5143295355.0;-5146698278.0;-12919520.0;4080.6106063700186;4966.4189452026;-849.2035052881465;-202944.00838610876;-83833.33333333333;-119110.67505277542
0.45600000000000035;-5130056978.0;-5130229417.0;-13065938.0;3309.594043152762;4117.215439914454;-820.5611135444351;-192754.14080431414;-90583.33333333333;-102170.80747098081
0.46000000000000035;-5119657457.0;-5117042800.0;-13014178.0;2599.8802237672485;3296.6543263700187;-767.9109632172567;-177428.45484637836;-97333.33333333333;-80095.12151304504
0.46400000000000036;-5111793771.0;-5106927827.0;-12729630.0;1965.9213058330965;2528.743363152762;-692.6409393855133;-158489.729483538;-103750.0;-54739.72948353799
0.46800000000000036;-5106111938.0;-5099583418.0;-12210353.0;1420.458248518024;1836.1024237672486;-602.8022979341522;-136365.76432876813;-109916.66666666667;-26449.097662101463
0.47200000000000036;-5102203489.0;-5094650218.0;-11461720.0;977.1121157256947;1233.3001258330964;-500.5450773150724;-110836.53319808232;-115416.66666666667;4580.13346858435
0.47600000000000037;-5099654546.0;-5091719198.0;-10484291.0;637.2356439767509;732.7550485180241;-384.70039279232935;-84969.11793723595;-120333.33333333333;35364.21539609738
0.48000000000000037;-5098145788.0;-5090326980.0;-9327566.0;377.1896646600325;348.0546557256947;-270.4729717489438;-65011.494829179595;-124333.33333333333;59321.83850415373
0.4840000000000004;-5097452903.0;-5090016654.0;-8129134.0;173.22117627880954;77.58168397675092;-188.14005931671835;-50992.12209530575;-127500.0;76507.87790469425
0.4880000000000004;-5097194920.0;-5090458887.0;-6994016.0;64.49577377870335;-110.55837533996743;-135.861408381223;-27181.350625026545;-129666.66666666667;102485.31604164012
0.4920000000000004;-5097076357.0;-5091444566.0;-5750354.0;29.64078917191441;-246.4197837211904;-34.105682500106184;-8713.746151697236;-131000.0;122286.25384830276
0.4960000000000004;-5097128872.0;-5092566667.0;-4509690.0;-13.128903672708608;-280.5254662212966;39.58485539321103;-10692.423211155754;-131500.0;120807.57678884425
