Zeit[sec];Sollposition[°];Istposition[°];Positionsschleppfehler[°];Sollgeschwindigkeit[°/s];Istgeschwindigkeit[°/s];Geschwindigkeitsdifferenz[°/s];Sollbeschleunigung[°/s*s];Istbeschleunigung[°/s*s];Beschleunigungsdifferenz[°/s*s]
0.0;9817499999.0;9817499995.0;4.0;8.515934755133369e-10;0.00023999687749058976;3.1225094102157666e-09;2.1289836887833425e-07;0.0;2.1289836887833425e-07
0.004;9817499999.0;9817499995.0;4.0;1.4193224591888948e-09;0.00023999999999999998;8.515934755059986e-10;1.4193224591888947e-07;0.0;1.4193224591888947e-07
0.008;9817499999.0;9817499995.0;4.0;8.515934755133369e-10;0.00024000085159347548;5.677289836706657e-10;-1.4193224591888947e-07;0.0;-1.4193224591888947e-07
0.012;9817499999.0;9817499995.0;4.0;0.0;0.00024000141932245916;-5.677289836706657e-10;-2.1289836887833425e-07;0.0;-2.1289836887833425e-07
0.016;9817499999.0;9817499995.0;4.0;0.0;0.00024000085159347548;-8.515934755059986e-10;0.0;0.0;0.0
0.02;9817499999.0;9817499995.0;4.0;0.0;0.00023999999999999998;0.0;0.0;0.0;0.0
0.024;9817499999.0;9817499995.0;4.0;0.0;0.00023999999999999998;0.0;0.0;0.0;0.0
0.028;9817499999.0;9817499995.0;4.0;0.0;0.00023999999999999998;0.0;0.0;0.0;0.0
0.032;9817499999.0;9817499995.0;4.0;0.0;0.00023999999999999998;0.0;0.0;0.0;0.0
0.036000000000000004;9817499999.0;9817499995.0;4.0;0.0;0.00023999999999999998;0.0;0.0;0.0;0.0
0.04000000000000001;9817499999.0;9817499995.0;4.0;0.0;0.00023999999999999998;0.0;0.0;0.0;0.0
0.04400000000000001;9817499999.0;9817499995.0;4.0;0.0;0.00023999999999999998;0.0;0.0;0.0;0.0
0.048000000000000015;9817499999.0;9817499995.0;4.0;0.0;0.00023999999999999998;0.0;0.0;0.0;0.0
0.05200000000000002;9817499999.0;9817499995.0;4.0;0.0;0.00023999999999999998;0.0;0.0;0.0;0.0
0.05600000000000002;9817499999.0;9817499995.0;4.0;0.0;0.00023999999999999998;0.0;0.0;0.0;0.0
0.060000000000000026;9817501036.0;9817499995.0;4.0;0.2590872862763007;0.00023999999999999998;0.0;64.77182156907517;0.0;64.77182156907517
0.06400000000000003;9817587420.0;9817499995.0;1041.0;21.596091598810453;0.00023999999999999998;0.3213072862763007;5334.251078133538;0.0;5334.251078133538
0.06800000000000003;9817830440.0;9817501281.0;86139.0;60.75483617640182;0.3215472862763007;26.442884312534154;9789.686144397841;0.0;9789.686144397841
0.07200000000000004;9818382750.0;9817608338.0;222102.0;138.07755840073943;26.764431598810454;47.31652457759136;19330.680556084404;0.0;19330.680556084404
0.07600000000000004;9819379370.0;9817904661.0;478089.0;249.15498804159668;74.08095617640181;92.68194222433762;27769.35741021431;250.0;27519.35741021431
0.08000000000000004;9820940834.0;9818571712.0;807658.0;390.36603370515513;166.76289840073943;130.85156964085726;35302.76141588961;666.6666666666666;34636.094749222946
0.08400000000000005;9823254072.0;9819762169.0;1178665.0;578.3095691932155;297.6144680415967;163.47146566355843;46985.88387201508;1416.6666666666667;45569.21720534841
0.08800000000000005;9826574881.0;9821606512.0;1647560.0;830.2020830020452;461.0859337051551;216.07723548806035;62973.12845220745;2416.6666666666665;60556.46178554078
0.09200000000000005;9831195377.0;9824315164.0;2259717.0;1155.1240452694515;677.1631691932155;288.6219338088297;81230.49056685156;3750.0;77480.49056685156
0.09600000000000006;9837388015.0;9828178304.0;3017073.0;1548.1594205300737;965.7851030020452;370.3633222674064;98258.84381515556;5500.0;92758.84381515556
0.10000000000000006;9845383319.0;9833522897.0;3865118.0;1998.8259099113332;1336.1484252694515;443.9180752606221;112666.62234531486;7750.0;104916.62234531486
0.10400000000000006;9855401767.0;9840643163.0;4740156.0;2504.611809920374;1780.0665005300737;503.1687693812594;126446.47500226022;10583.333333333334;115863.1416689269
0.10800000000000007;9867649548.0;9849776104.0;5625663.0;3061.9452158428116;2283.235269911333;558.9163200090411;139333.3514806094;14083.333333333334;125250.01814727606
0.11200000000000007;9882280025.0;9861144710.0;6504838.0;3657.6189398846636;2842.151589920374;610.0839059224372;148918.43101046298;17916.666666666668;131001.76434379633
0.11600000000000008;9899408898.0;9874953651.0;7326374.0;4282.217962288582;3452.2354958428114;644.9658840418524;156149.7556009797;22333.333333333332;133816.42226764635
0.12000000000000008;9919112601.0;9891342456.0;8066442.0;4925.925729023607;4097.201379884664;669.003102403919;160926.94168375625;27000.0;133926.94168375625
0.12400000000000008;9941400657.0;9910407273.0;8705328.0;5572.013512539448;4766.204482288583;682.0409267350242;161521.9458789602;32083.333333333332;129438.61254562686
0.12800000000000009;9966234807.0;9932200254.0;9200403.0;6208.537322457447;5448.245409023607;675.7922835158415;159130.95247949968;37333.333333333336;121797.61914616634
0.1320000000000001;9993530373.0;9956696404.0;9538403.0;6823.8912531118785;6124.0376925394485;656.8038099179985;153838.48266360792;42583.333333333336;111255.14933027458
0.1360000000000001;10023135173.0;9983819770.0;9710603.0;7401.199456596401;6780.841502457447;625.6859306544311;144327.05087113072;47833.333333333336;96493.71753779739
0.1400000000000001;10054854184.0;10013445879.0;9689294.0;7929.752404877708;7406.527433111878;576.0296634845236;132138.23707032658;52833.333333333336;79304.90373699323
0.1440000000000001;10088474097.0;10045376107.0;9478077.0;8404.977818060832;7982.557096596402;515.879928281307;118806.35329578104;57750.0;61056.35329578104
0.1480000000000001;10123759987.0;10079369855.0;9104242.0;8821.47231121589;8498.437024877709;452.79531318312365;104123.62328876452;62166.666666666664;41956.95662209786
0.1520000000000001;10160452527.0;10115174784.0;8585203.0;9173.134439634057;8951.232338060832;385.35215315505775;87915.53210454185;66250.0;21665.532104541853
0.1560000000000001;10198289583.0;10152521121.0;7931406.0;9459.263517576106;9336.58449121589;312.43430841816735;71532.2694855122;69750.0;1782.269485512188
0.16000000000000011;10237031187.0;10191117196.0;7172387.0;9685.400540437155;9649.018799634057;240.5879379420494;56534.25571526213;72750.0;-16215.744284737866
0.16400000000000012;10276448168.0;10230675622.0;6355565.0;9854.244761598926;9889.606737576107;177.1277028610475;42211.055290442804;75166.66666666667;-32955.61137622387
0.16800000000000012;10316330995.0;10270942559.0;5505609.0;9970.706432342948;10066.734440437154;117.84686116177181;29115.417686005458;77083.33333333333;-47967.91564732787
0.17200000000000013;10356518683.0;10311680884.0;4650111.0;10046.921398567805;10184.581301598926;65.13179074402069;19053.74155621439;78500.0;-59446.25844378561
0.17600000000000013;10396884028.0;10352679736.0;3838947.0;10091.335712262013;10249.713092342947;27.545126224858905;11103.57842355188;79500.0;-68396.42157644812
0.18000000000000013;10437302056.0;10393788768.0;3095260.0;10104.5066500764;10277.258218567806;-0.20690630579338176;3292.7344535969496;80000.0;-76707.26554640305
0.18400000000000014;10477641930.0;10434896973.0;2405083.0;10084.967890779486;10277.051312262012;-28.239682185610945;-4884.689824228644;80250.0;-85134.68982422864
0.18800000000000014;10517784476.0;10475892219.0;1749711.0;10035.636026615251;10248.811630076401;-58.861079296915705;-12332.966041058626;80166.66666666667;-92499.6327077253
0.19200000000000014;10557624258.0;10516652021.0;1132455.0;9959.94517719714;10189.950550779486;-86.36722416423436;-18922.712354527903;80000.0;-98922.7123545279
0.19600000000000015;10597050227.0;10557066354.0;557904.0;9856.491704142323;10103.583326615251;-110.16390941811187;-25863.36826370416;79500.0;-105363.36826370416
0.20000000000000015;10635940716.0;10597040031.0;10196.0;9722.621906551214;9993.41941719714;-136.31595305481642;-33467.44939777727;78833.33333333333;-112300.78273111061
0.20400000000000015;10674163383.0;10636468444.0;-527728.0;9555.666106281706;9857.103464142323;-166.14523759110853;-41738.95006737712;77750.0;-119488.95006737713
0.20800000000000016;10711572258.0;10675232276.0;-1068893.0;9352.218473186664;9690.958226551214;-199.42570026950852;-50861.90827376049;76250.0;-127111.90827376049
0.21200000000000016;10748010443.0;10713198406.0;-1626148.0;9109.54562313005;9491.532526281706;-236.88293309504297;-60668.21251415331;74166.66666666667;-134834.87918082
0.21600000000000016;10783325841.0;10750217004.0;-2206561.0;8828.84912570095;9254.649593186663;-277.49763005661225;-70174.12435727511;71583.33333333333;-141757.45769060843
0.22000000000000017;10817384191.0;10786125611.0;-2799770.0;8514.587177974512;8977.15196313005;-316.28903742910006;-78565.48693160948;68500.0;-147065.48693160948
0.22400000000000017;10850027488.0;10820769062.0;-3384871.0;8160.823930156812;8660.86292570095;-349.368007726438;-88440.81195442504;64583.333333333336;-153024.14528775838
0.22800000000000017;10881221364.0;10854015041.0;-3987553.0;7798.468587172292;8311.494917974513;-389.92416781770044;-90588.83574612992;59833.333333333336;-150422.16907946326
0.23200000000000018;10910766367.0;10885701324.0;-4479960.0;7386.250376873712;7921.570750156812;-391.89976298451984;-103054.55257464496;54166.666666666664;-157221.21924131163
0.23600000000000018;10938597216.0;10915820007.0;-5053640.0;6957.711772511033;7529.670987172292;-446.6390102985797;-107134.65109066988;47833.333333333336;-154967.98442400323
0.24000000000000019;10964628331.0;10944152134.0;-5554918.0;6507.778555400489;7083.031976873713;-458.61528436267963;-112483.30427763608;40666.666666666664;-153149.97094430274
0.2440000000000002;10988785358.0;10970649800.0;-6021469.0;6039.256349473234;6624.416692511033;-477.9262771105441;-117130.55148181366;33000.0;-150130.55148181366
0.2480000000000002;11011003327.0;10995235761.0;-6450403.0;5554.4919962924705;6146.490415400489;-494.2582459272553;-121191.08829519087;24666.666666666668;-145857.75496185754
0.25200000000000017;11031229770.0;11017844689.0;-6841362.0;5056.61052245837;5652.232169473234;-508.2218931807629;-124470.36845852518;15916.666666666666;-140387.03512519185
0.25600000000000017;11049428058.0;11038420730.0;-7190960.0;4549.571960165584;5144.010276292471;-518.8573538341006;-126759.64057319652;6833.333333333333;-133592.97390652986
0.2600000000000002;11065567659.0;11056921341.0;-7493283.0;4034.9000399232978;4625.15292245837;-525.1779422927866;-128667.9800605715;-2416.6666666666665;-126251.31339390483
0.2640000000000002;11079648661.0;11073321240.0;-7753581.0;3520.2502216843013;4099.9749801655835;-530.2898002422858;-128662.45455974911;-11666.666666666666;-116995.78789308244
0.2680000000000002;11091732877.0;11087599980.0;-7951319.0;3021.0539703488535;3569.6851799232977;-526.5140982389962;-124799.06283386197;-20916.666666666668;-103882.3961671953
0.2720000000000002;11101908629.0;11099772664.0;-8039787.0;2543.937938902564;3043.1710816843015;-504.5043313354481;-119279.00786157238;-29833.333333333332;-89445.67452823905
0.2760000000000002;11110271398.0;11109927331.0;-8018702.0;2090.692138288975;2538.6667503488534;-475.85093144628945;-113311.45015339724;-38333.333333333336;-74978.1168200639
0.2800000000000002;11116949131.0;11118178594.0;-7907196.0;1669.4329472861011;2062.815818902564;-446.55544061358887;-105314.79775071847;-46333.333333333336;-58981.464417385134
0.2840000000000002;11122108676.0;11124643635.0;-7694504.0;1289.8864119421335;1616.260378288975;-408.49767100287386;-94886.63383599192;-53583.333333333336;-41303.30050265858
0.2880000000000002;11125943698.0;11129474685.0;-7366009.0;958.7553690851075;1207.7627072861012;-359.8368353439678;-82782.76071425648;-60083.333333333336;-22699.427380923145
0.2920000000000002;11128667233.0;11132866388.0;-6922690.0;680.8837722865966;847.9258719421334;-304.5319028570259;-69467.89919962773;-65583.33333333333;-3884.565866294409
0.2960000000000002;11130512907.0;11135039963.0;-6372730.0;461.41829559217786;543.3939690851075;-244.87399679851092;-54866.36917360468;-70333.33333333333;15466.964159728646
0.3000000000000002;11131686103.0;11136234042.0;-5721135.0;293.2989988342986;298.5199722865966;-180.3697766944187;-42029.82418946982;-74083.33333333333;32053.509143863506
0.3040000000000002;11132344883.0;11136706642.0;-5020539.0;164.69511108849485;118.15019559217791;-126.0835367578793;-32150.97193645093;-76916.66666666667;44765.69473021574
0.3080000000000002;11132664894.0;11136674909.0;-4330026.0;80.00271060752092;-7.933341165701393;-87.17310774580375;-21173.10012024348;-78916.66666666667;57743.566546423186
0.3120000000000002;11132801649.0;11136294484.0;-3629590.0;34.18883772908845;-95.10644891150514;-42.666240480973926;-11453.46821960812;-80166.66666666667;68713.19844705856
0.3160000000000002;11132753626.0;11135743394.0;-2941745.0;-12.00573490755325;-137.77268939247907;-4.543172878432472;-11548.643159160425;-80833.33333333333;69284.69017417291
0.32000000000000023;11132721891.0;11135174131.0;-2420505.0;-7.933909932690768;-142.31586227091154;-14.920172636641723;1017.9562437156206;-80916.66666666667;81934.6229103823
0.32400000000000023;11132709355.0;11134545187.0;-1823296.0;-3.133977493106141;-157.23603490755326;39.9043649748625;1199.9831098961567;-80666.66666666667;81866.64977656283
0.32800000000000024;11132709149.0;11134075861.0;-1366506.0;-0.0514701597795744;-117.33166993269076;32.20733243958462;770.6268333316417;-80000.0;80770.62683333164
0.33200000000000024;11132713653.0;11133735364.0;-1026215.0;1.1259943112489532;-85.12433749310614;23.499967333326566;294.3661177571319;-79000.0;79294.36611775713
0.33600000000000024;11132718056.0;11133488867.0;-775214.0;1.100671880629119;-61.62437015977957;16.23752447102853;-6.330607654958575;-77583.33333333333;77577.00272567837
0.34000000000000025;11132720558.0;11133307320.0;-589264.0;0.6255347349189742;-45.386845688751045;11.131677569380173;-118.78428642753619;-76083.33333333333;75964.5490469058
0.34400000000000025;11132721244.0;11133170300.0;-449742.0;0.17151916825777105;-34.25516811937087;7.896182854289851;-113.50389166530077;-74416.66666666667;74303.16277500137
0.34800000000000025;11132720894.0;11133064865.0;-343621.0;-0.08736695205296337;-26.35898526508102;5.913244433338793;-64.72153007768361;-72500.0;72435.27846992231
0.35200000000000026;11132720246.0;11132983083.0;-262189.0;-0.16199413156880935;-20.445740831742228;4.6270338796892645;-18.656794878961495;-70250.0;70231.34320512104
0.35600000000000026;11132719722.0;11132919809.0;-199563.0;-0.13116681053404713;-15.818706952052963;3.6829328204841545;7.706830258690553;-67750.0;67757.70683025868
0.36000000000000026;11132719755.0;11132871266.0;-151544.0;0.008281006230772488;-12.135774131568809;2.911967321034762;34.86195419120491;-64916.666666666664;64951.52862085787
0.36400000000000027;11132722761.0;11132834371.0;-114616.0;0.751434590822881;-9.223806810534047;2.3551278167648197;185.78839614802712;-62000.0;62185.788396148026
0.36800000000000027;11132737920.0;11132806897.0;-84136.0;3.7899277309451573;-6.868678993769227;2.5719535845921087;759.623285030569;-58750.0;59509.62328503057
0.3720000000000003;11132787958.0;11132789711.0;-51791.0;12.509341229076027;-4.296725409177118;4.979193140122276;2179.853374532717;-55416.666666666664;57596.52004119938
0.3760000000000003;11132914705.0;11132792440.0;-4482.0;31.686816563087028;0.6824677309451577;11.55795349813087;4794.36883350275;-51750.0;56544.36883350275
0.3800000000000003;11133240294.0;11132841401.0;73304.0;81.39735898826663;12.240421229076027;23.844635334011002;12427.635606294902;-47916.666666666664;60344.30227296156
0.3840000000000003;11133735704.0;11132985741.0;254553.0;123.85249099807923;36.08505656308703;60.5854824251796;10613.78300245315;-44000.0;54613.78300245315
0.3880000000000003;11134512382.0;11133372423.0;363281.0;194.1693902311596;96.67053898826663;48.9788120098126;17579.224808270093;-39750.0;57329.2248082701
0.3920000000000003;11135659071.0;11133955020.0;557362.0;286.67235292202673;145.64935099807923;81.96175923308039;23125.74067271678;-35416.666666666664;58542.40733938345
0.3960000000000003;11137264009.0;11134865464.0;793607.0;401.2343678131894;227.6111102311596;106.67766269086712;28640.50372279067;-30750.0;59390.50372279067
0.4000000000000003;11139410127.0;11136202619.0;1061390.0;536.5295778292765;334.28877292202674;130.62899489116268;33823.80250402177;-26083.333333333332;59907.135837355105
0.4040000000000003;11142171494.0;11138062290.0;1347837.0;690.3415341725166;464.9177678131894;152.4820300160871;38452.98908581003;-21166.666666666668;59619.6557524767
0.4080000000000003;11145609022.0;11140531889.0;1639605.0;859.3821650648512;617.3997978292765;171.31803634324012;42260.157723083634;-16250.0;58510.157723083634
0.4120000000000003;11149767451.0;11143686760.0;1922262.0;1039.607126954178;788.7178341725166;186.00005089233457;45056.24047233172;-11333.333333333334;56389.57380566506
0.4160000000000003;11154673643.0;11147585631.0;2181820.0;1226.5480013182218;974.7178850648512;195.7984418893269;46735.21859101095;-6500.0;53235.21859101095
0.4200000000000003;11160337024.0;11152267696.0;2405947.0;1415.845059035138;1170.516326954178;200.3884943640437;47324.264429229064;-1916.6666666666667;49240.93109589573
0.4240000000000003;11166753047.0;11157751315.0;2585709.0;1604.0056211470069;1370.9048213182218;200.08277771691633;47040.140527967196;2416.6666666666665;44623.47386130053
0.4280000000000003;11173908449.0;11164035265.0;2717782.0;1788.8505593451423;1570.9875990351381;196.0849421118687;46211.23454953385;6333.333333333333;39877.901216200524
0.43200000000000033;11181785725.0;11171103555.0;2804894.0;1969.318948040052;1767.0725411470069;190.0716581981353;45117.097173727416;9750.0;35367.097173727416
0.43600000000000033;11190365744.0;11178932131.0;2853594.0;2145.0046017458844;1957.1441993451422;183.3903886949097;43921.413426458115;12750.0;31171.413426458115
0.44000000000000034;11199628977.0;11187494269.0;2871475.0;2315.808114516023;2140.534588040052;176.75851370583268;42700.87819253467;15166.666666666666;27534.211525868006
0.44400000000000034;11209555584.0;11196763441.0;2865536.0;2481.651518928393;2317.2931017458845;170.44717277013842;41460.85110309252;17333.333333333332;24127.51776975919
0.44800000000000034;11220124936.0;11206714402.0;2841182.0;2642.337960933253;2487.740274516023;164.38216441237046;40171.6105012149;19000.0;21171.6105012149
0.45200000000000035;11231315340.0;11217322891.0;2802045.0;2797.6008517580926;2652.1224389283934;158.3382220048593;38815.722706209956;20583.333333333332;18232.38937287662
0.45600000000000035;11243103822.0;11228564733.0;2750607.0;2947.120387673111;2810.4606609332527;152.17661082483983;37379.8839787546;21833.333333333332;15546.550645421274
0.46000000000000035;11255465957.0;11240415282.0;2688540.0;3090.5335205004258;2962.6372717580925;145.7955159150183;35853.28320682868;22916.666666666668;12936.61654016201
0.46400000000000036;11268375983.0;11252849013.0;2616944.0;3227.506395599405;3108.432787673111;139.11737282731474;34243.21877474483;23833.333333333332;10409.885441411501
0.46800000000000036;11281806896.0;11265839213.0;2536770.0;3357.7281494207045;3247.5501605004256;132.16243509897959;32555.43845532486;24750.0;7805.438455324861
0.47200000000000036;11295730441.0;11279358063.0;2448833.0;3480.885947584123;3379.712595599405;124.94553382129925;30789.44954085466;25750.0;5039.449540854662
0.47600000000000037;11310117242.0;11293376695.0;2353746.0;3596.700122436117;3504.6581294207044;117.45257816341882;28953.543712998453;26666.666666666668;2286.877046331785
0.48000000000000037;11324936873.0;11307865137.0;2252105.0;3704.9075051337436;3622.1107075841232;109.71571485199365;27051.84567440665;27583.333333333332;-531.4876589266823
0.4840000000000004;11340157826.0;11322792442.0;2144431.0;3805.2381412407326;3731.826422436117;101.74694269762676;25082.65902674725;28416.666666666668;-3334.0076399194168
0.4880000000000004;11355747608.0;11338126735.0;2031091.0;3897.4452491943835;3833.5733651337437;93.53023610698892;23051.776988412712;29250.0;-6198.223011587288
0.4920000000000004;11371623370.0;11353835149.0;1912459.0;3968.9404802328227;3927.1036012407326;85.08918795365071;17873.807759609805;30000.0;-12126.192240390195
0.4960000000000004;11387852176.0;11369883920.0;1739450.0;4057.201248920008;4012.1927891943833;61.11469103843956;22065.192171796298;30750.0;-8684.807828203702
