Zeit[sec];Sollposition[°];Istposition[°];Positionsschleppfehler[°];Sollgeschwindigkeit[°/s];Istgeschwindigkeit[°/s];Geschwindigkeitsdifferenz[°/s];Sollbeschleunigung[°/s*s];Istbeschleunigung[°/s*s];Beschleunigungsdifferenz[°/s*s]
0.0;0.0;4.0;-4.0;-0.0;-0.00023999999999999998;0.0;0.0;0.0;0.0
0.004;0.0;4.0;-4.0;-0.0;-0.00023999999999999998;0.0;0.0;0.0;0.0
0.008;0.0;4.0;-4.0;-0.0;-0.00023999999999999998;0.0;0.0;0.0;0.0
0.012;0.0;4.0;-4.0;-0.0;-0.00023999999999999998;0.0;0.0;0.0;0.0
0.016;0.0;4.0;-4.0;-0.0;-0.00023999999999999998;0.0;0.0;0.0;0.0
0.02;0.0;4.0;-4.0;-0.0;-0.00023999999999999998;0.0;0.0;0.0;0.0
0.024;0.0;4.0;-4.0;-0.0;-0.00023999999999999998;0.0;0.0;0.0;0.0
0.028;0.0;4.0;-4.0;-0.0;-0.00023999999999999998;0.0;0.0;0.0;0.0
0.032;0.0;4.0;-4.0;-0.0;-0.00023999999999999998;0.0;0.0;0.0;0.0
0.036000000000000004;0.0;4.0;-4.0;-0.0;-0.00023999999999999998;0.0;0.0;0.0;0.0
0.04000000000000001;0.0;4.0;-4.0;-0.0;-0.00023999999999999998;0.0;0.0;0.0;0.0
0.04400000000000001;0.0;4.0;-4.0;-0.0;-0.00023999999999999998;0.0;0.0;0.0;0.0
0.048000000000000015;0.0;4.0;-4.0;-0.0;-0.00023999999999999998;0.0;0.0;0.0;0.0
0.05200000000000002;0.0;4.0;-4.0;-0.0;-0.00023999999999999998;0.0;0.0;0.0;0.0
0.05600000000000002;-2700.0;4.0;-4.0;-0.675239944746696;-0.00023999999999999998;0.0;-168.809986186674;0.0;-168.809986186674
0.060000000000000026;-29617.0;4.0;-2704.0;-6.729220401944433;-0.00023999999999999998;-0.837239944746696;-1513.4951142994344;0.0;-1513.4951142994344
0.06400000000000003;-161919.0;-3345.0;-26272.0;-33.07548281769783;-0.8374799447466961;-7.468060457197738;-6586.565603938349;0.0;-6586.565603938349
0.06800000000000003;-599113.0;-36567.0;-125352.0;-109.29841002048;-8.305540401944434;-32.291062415753395;-19055.731800695543;0.0;-19055.731800695543
0.07200000000000004;-1707552.0;-198953.0;-400160.0;-277.10981088202516;-40.59660281769783;-92.71140720278217;-41952.85021538629;-83.33333333333333;-41869.51688205296
0.07600000000000004;-4023888.0;-732185.0;-975367.0;-579.0838636319174;-133.30801002048;-202.32382086154516;-75493.51318747307;-416.6666666666667;-75076.8465208064
0.08000000000000004;-8203382.0;-2074712.0;-1949176.0;-1044.8734209474273;-335.63183088202516;-360.4025927498923;-116447.38932887747;-1333.3333333333333;-115114.05599554414
0.08400000000000005;-14953477.0;-4858849.0;-3344533.0;-1687.5237197069932;-696.0344236319174;-549.51097731551;-160662.57468989148;-3000.0;-157662.57468989148
0.08800000000000005;-24999767.0;-9841030.0;-5112447.0;-2511.572309391759;-1245.5454009474274;-748.7251387595657;-206012.14742119145;-5916.666666666667;-200095.4807545248
0.09200000000000005;-39077224.0;-17818112.0;-7181655.0;-3519.3641904946503;-1994.270539706993;-948.201069684766;-251947.97027572282;-10250.0;-241697.97027572282
0.09600000000000006;-57906760.0;-29587998.0;-9489226.0;-4707.383849003889;-2942.471609391759;-1146.2461411028912;-297004.91462730966;-16166.666666666666;-280838.24796064297
0.10000000000000006;-82148206.0;-45942869.0;-11963891.0;-6060.361150817057;-4088.7177504946503;-1336.4995585092383;-338244.32545329205;-23500.0;-314744.32545329205
0.10400000000000006;-112357203.0;-67643738.0;-14504468.0;-7552.2489432198845;-5425.217309003889;-1505.4119218131682;-372971.94810070685;-32416.666666666668;-340555.2814340402
0.10800000000000007;-148959931.0;-95366254.0;-16990949.0;-9150.681465614312;-6930.629230817057;-1641.0766524028268;-399608.13059860695;-42833.333333333336;-356774.79726527364
0.11200000000000007;-192240082.0;-129653077.0;-19306854.0;-10820.037171194992;-8571.705883219884;-1737.3868223944282;-417338.92639516987;-54500.0;-362838.92639516987
0.11600000000000008;-242344758.0;-170889447.0;-21350635.0;-12526.168435436015;-10309.092705614312;-1791.9825655806799;-426532.81606025575;-67250.0;-359282.81606025575
0.12000000000000008;-299316393.0;-219293748.0;-23051010.0;-14242.90821080538;-12101.075271194992;-1808.153764241024;-429184.9438423414;-80666.66666666667;-348518.2771756748
0.12400000000000008;-363137765.0;-274930664.0;-24385729.0;-15955.342089090647;-13909.229035436016;-1796.8229153693646;-428108.4695713166;-94583.33333333333;-333525.1362379833
0.12800000000000009;-433770788.0;-337754871.0;-25382894.0;-17658.255002745278;-15706.05195080538;-1772.2637782852653;-425728.2284136577;-108583.33333333333;-317144.8950803244
0.1320000000000001;-511179155.0;-407668133.0;-26102655.0;-19352.09078656768;-17478.315729090646;-1746.0985736546318;-423458.94595560094;-122583.33333333333;-300875.6126222676
0.1360000000000001;-595335620.0;-484565790.0;-26613365.0;-21039.115336069404;-19224.414302745277;-1724.478383822403;-421756.1373754306;-136500.0;-285256.1373754306
0.1400000000000001;-686219876.0;-568361360.0;-26974260.0;-22721.062935107766;-20948.89268656768;-1708.678249501725;-420486.8997595904;-150166.66666666666;-270320.23309292377
0.1440000000000001;-783811938.0;-658991643.0;-27228233.0;-24398.01427628719;-22657.570936069405;-1697.1859790383605;-419237.8352948563;-163666.66666666666;-255571.1686281896
0.1480000000000001;-888084566.0;-756410670.0;-27401268.0;-26068.15578932906;-24354.756915107766;-1687.333441179424;-417535.378260467;-177000.0;-240535.37826046703
0.1520000000000001;-998994849.0;-860579031.0;-27505535.0;-27727.569299072966;-26042.09035628719;-1676.3975330418689;-414853.37743597664;-190250.0;-224603.37743597664
0.1560000000000001;-1116467600.0;-971452982.0;-27541867.0;-29368.186391124527;-27718.48788932906;-1661.5934297439053;-410154.27301289036;-203416.66666666666;-206737.6063462237
0.16000000000000011;-1240369964.0;-1088973307.0;-27494293.0;-30975.589697216492;-29380.081319072964;-1637.7626520515623;-401850.8265229912;-216500.0;-185350.82652299115
0.16400000000000012;-1370492677.0;-1213044682.0;-27325282.0;-32530.67664232341;-31017.843971124526;-1597.2626460919637;-388771.73627672985;-229416.66666666666;-159355.06961006316
0.16800000000000012;-1506547008.0;-1343505108.0;-26987569.0;-34013.58099175358;-32615.10661721649;-1534.824165106922;-370726.08735754236;-242250.0;-128476.08735754239
0.17200000000000013;-1648171677.0;-1480104831.0;-26442177.0;-35406.16563142444;-34149.93078232341;-1450.1808294301663;-348146.1599177146;-254666.66666666666;-93479.49325104796
0.17600000000000013;-1794944156.0;-1622505277.0;-25666400.0;-36693.1181480201;-35600.11161175358;-1346.0380196708575;-321738.1291489146;-266583.3333333333;-55154.79581558128
0.18000000000000013;-1946390609.0;-1770289875.0;-24654281.0;-37861.61134274859;-36946.149631424436;-1226.225376595663;-292123.2986821233;-277833.3333333333;-14289.965348789963
0.18400000000000014;-2101989900.0;-1922979375.0;-23411234.0;-38899.82089111959;-38172.3750080201;-1093.9103747284898;-259552.38709275;-288333.3333333333;28780.94624058332
0.18800000000000014;-2261180014.0;-2080044516.0;-21945384.0;-39797.52661530983;-39266.28538274859;-950.258548370999;-224426.43104755916;-297916.6666666667;73490.23561910752
0.19200000000000014;-2423380978.0;-2240910691.0;-20269323.0;-40550.23914196738;-40216.54393111959;-797.1420641902369;-188178.1316643883;-306416.6666666667;118238.53500227841
0.19600000000000015;-2588031676.0;-2404965434.0;-18415544.0;-41162.67240599204;-41013.685995309825;-641.4857866575549;-153108.3160061644;-313750.0;160641.6839938356
0.20000000000000015;-2754620909.0;-2571586121.0;-16445555.0;-41647.306333556044;-41655.17178196738;-494.23392402465834;-121158.48189100143;-319833.3333333333;198674.85144233188
0.20400000000000015;-2922701994.0;-2740183743.0;-14437166.0;-42020.2693253235;-42149.40570599204;-364.1305875640028;-93240.74794186345;-324500.0;231259.25205813657
0.20800000000000016;-3091894900.0;-2910237888.0;-12464106.0;-42298.22452881579;-42513.53629355604;-254.57939176746004;-69488.80087307225;-327666.6666666667;258177.86579359445
0.21200000000000016;-3261880864.0;-3081310350.0;-10584550.0;-42496.48899257878;-42768.1156853235;-165.1818434922825;-49566.115940748205;-328833.3333333333;279267.2173925851
0.21600000000000016;-3432396613.0;-3253043540.0;-8837324.0;-42628.93509658641;-42933.29752881578;-93.4309037629937;-33111.526001906896;-328000.0;294888.4739980931
0.22000000000000017;-3603233800.0;-3425150453.0;-7246160.0;-42709.29469413045;-43026.72843257878;-36.97626400762965;-20089.899386010075;-324916.6666666667;304826.7672806566
0.22400000000000017;-3774237832.0;-3597405271.0;-5828529.0;-42751.00612961893;-43063.70469658641;4.698262455960503;-10427.85887212085;-319916.6666666667;309488.80779454584
0.22800000000000017;-3945299865.0;-3769641296.0;-4596536.0;-42765.506171304325;-43059.006434130446;32.208144511518185;-3625.010421348634;-312833.3333333333;309208.3229119847
0.23200000000000018;-4116344650.0;-3941748489.0;-3551376.0;-42761.19405125776;-43026.79828961893;48.209558314600145;1078.030011642113;-303916.6666666667;304994.69667830877
0.23600000000000018;-4287318597.0;-4113662843.0;-2681807.0;-42743.4848684055;-42978.58873130433;56.48626004657126;4427.295713063359;-293250.0;297677.29571306333
0.24000000000000019;-4458180335.0;-4285351252.0;-1967345.0;-42715.432535654436;-42922.10247125776;60.576902852255444;7013.083187766824;-281250.0;288263.08318776684
0.2440000000000002;-4628894858.0;-4456797354.0;-1382981.0;-42678.62860992044;-42861.5255684055;63.11417275106214;9200.981433499692;-268083.3333333333;277284.314766833
0.2480000000000002;-4799430678.0;-4627990999.0;-903859.0;-42633.95303362591;-42798.41139565444;65.55124573400099;11168.894073631236;-254166.66666666666;265335.5607402979
0.25200000000000017;-4969758742.0;-4798922439.0;-508239.0;-42582.014036984154;-42732.86014992044;68.41277629452816;12984.749160439605;-239750.0;252734.7491604396
0.25600000000000017;-5139852272.0;-4969580228.0;-178514.0;-42523.38044936786;-42664.44737362591;71.72249664175615;14658.396904073015;-225250.0;239908.39690407302
0.2600000000000002;-5309687111.0;-5139951127.0;98855.0;-42458.7076026731;-42592.72487698415;75.27572761628835;16168.211673690166;-210666.66666666666;226834.8783403568
0.2640000000000002;-5479242923.0;-5310020923.0;333812.0;-42388.95096512715;-42517.449149367865;78.77026669476618;17439.159386487518;-196250.0;213689.1593864875
0.2680000000000002;-5648505239.0;-5479775638.0;532715.0;-42315.57711480582;-42438.6788826731;81.69081754594663;18343.462580332925;-182000.0;200343.46258033294
0.2720000000000002;-5817467038.0;-5649203590.0;698351.0;-42240.44782279728;-42356.98806512715;83.31201032132958;18782.323002134945;-168000.0;186782.32300213494
0.2760000000000002;-5986129262.0;-5818298294.0;831256.0;-42165.553761881056;-42273.67605480582;83.10359200854145;18723.51522905592;-153916.66666666666;172640.18189572258
0.2800000000000002;-6154500767.0;-5987060583.0;931321.0;-42092.87429011743;-42190.57246279728;80.89796091622702;18169.867940907352;-140000.0;158169.86794090737
0.2840000000000002;-6322597721.0;-6155499281.0;998514.0;-42024.236640589326;-42109.674501881054;76.71105176362471;17159.41238202504;-126166.66666666667;143326.07904869172
0.2880000000000002;-6490442508.0;-6323631134.0;1033413.0;-41961.19467807068;-42032.96345011743;70.73158952810627;15760.490629661945;-112500.0;128260.49062966194
0.2920000000000002;-6658062695.0;-6491480061.0;1037553.0;-41905.04467130094;-41962.23186058932;63.29036251864454;14037.501692435399;-98916.66666666667;112954.16835910207
0.2960000000000002;-6825490153.0;-6659075826.0;1013131.0;-41856.862612899764;-41898.94149807068;54.68468676973862;12045.514600293245;-85583.33333333333;97628.84793362657
0.3000000000000002;-6992760327.0;-6826452853.0;962700.0;-41817.54156664844;-41844.25681130094;45.1561984011787;9830.261562830856;-72750.0;82580.26156283086
0.3040000000000002;-7159911813.0;-6993649255.0;888928.0;-41787.86948858059;-41799.10061289976;34.89472625131748;7418.019516962886;-60416.666666666664;67834.68618362956
0.3080000000000002;-7326986177.0;-7160706078.0;794265.0;-41768.58896656441;-41764.205886648444;23.99229806785297;4820.130504043846;-48750.0;53570.130504043846
0.3120000000000002;-7494028159.0;-7327666932.0;680755.0;-41760.493552038366;-41740.21358858059;12.469922016178316;2023.8536315118836;-38000.0;40023.85363151188
0.3160000000000002;-7661086333.0;-7494577906.0;549747.0;-41764.54159642275;-41727.74366656441;0.23493452604452614;-1012.0110960961028;-28250.0;27237.988903903897
0.32000000000000023;-7828213604.0;-7661487940.0;401607.0;-41781.81562303164;-41727.50873203837;-12.936444384380593;-4318.506652221913;-19666.666666666668;15348.160014444755
0.32400000000000023;-7995467216.0;-7828449720.0;236116.0;-41813.40104040927;-41740.44517642275;-27.203486608887033;-7896.354344407882;-12166.666666666666;4270.312322258784
0.32800000000000024;-8162908544.0;-7995520314.0;53098.0;-41860.329969710656;-41767.648663031636;-42.56649737763655;-11732.232325346558;-6083.333333333333;-5648.898992013225
0.33200000000000024;-8330600100.0;-8162761174.0;-147370.0;-41922.88718460923;-41810.21516040927;-58.95700930138264;-15639.303724643469;-1250.0;-14389.303724643469
0.33600000000000024;-8498593481.0;-8330237862.0;-362238.0;-41998.34308608824;-41869.172169710655;-75.44929489857168;-18863.97536975346;2250.0;-21113.97536975346
0.34000000000000025;-8666909155.0;-8498016347.0;-577134.0;-42078.91647930405;-41944.62146460923;-88.34966147902014;-20143.348303950916;4666.666666666667;-24810.014970617583
0.34400000000000025;-8835517969.0;-8666148231.0;-760924.0;-42152.20154702267;-42032.97112608825;-91.6007932158027;-18321.266929655394;6166.666666666667;-24487.933596322062
0.34800000000000025;-9004325421.0;-8834646518.0;-871451.0;-42201.861073153275;-42124.57191930405;-79.91668771862169;-12414.881532651634;6833.333333333333;-19248.214865984966
0.35200000000000026;-9173155831.0;-9003464472.0;-860949.0;-42207.600498717315;-42204.48860702267;-49.02940613060491;-1434.8563910098164;7000.0;-8434.856391009816
0.35600000000000026;-9341744763.0;-9172478544.0;-677287.0;-42147.231034507735;-42253.518013153276;5.280294435964606;15092.366052394937;6666.666666666667;8425.699385728269
0.36000000000000026;-9509743426.0;-9341471494.0;-273269.0;-41999.66376694627;-42248.23771871731;84.61054420957953;36891.81689036559;6333.333333333333;30558.483557032258
0.36400000000000027;-9676728060.0;-9510126002.0;382576.0;-41746.156355868945;-42163.62717450773;186.91796756145777;63376.85276933189;6250.0;57126.85276933189
0.36800000000000027;-9842213943.0;-9678032838.0;1304778.0;-41371.46889977219;-41976.709206946274;308.8395310773267;93671.86402418884;6583.333333333333;87088.5306908555
0.3720000000000003;-10005678183.0;-9844704316.0;2490373.0;-40866.057945452296;-41667.86967586895;445.82315609675425;126352.73857997345;7666.666666666667;118686.07191330678
0.3760000000000003;-10166586768.0;-10009592502.0;3914319.0;-40227.14452630087;-41222.04651977219;590.8477143198979;159728.354787856;9666.666666666666;150061.68812118933
0.3800000000000003;-10324417113.0;-10172117297.0;5530529.0;-39457.58431197881;-40631.198805452295;735.886019151425;192390.0535805151;12666.666666666666;179723.38691384843
0.3840000000000003;-10478674888.0;-10331698548.0;7281435.0;-38564.44193901094;-39895.31278630087;874.6145743220623;223285.59324196796;16833.333333333332;206452.25990863462
0.3880000000000003;-10628907092.0;-10487781340.0;9106452.0;-37558.04918116179;-39020.69821197881;1002.6433929678678;251598.18946228735;22000.0;229598.18946228735
0.3920000000000003;-10774707179.0;-10639853559.0;10946467.0;-36450.0199538136;-38018.05481901094;1116.79365784915;277007.3068370475;28250.0;248757.3068370475
0.3960000000000003;-10915709631.0;-10787458603.0;12751424.0;-35250.611384886506;-36901.26116116179;1216.3266473481926;299852.1422317735;35416.666666666664;264435.4755651069
0.4000000000000003;-11051578799.0;-10930198341.0;14488710.0;-33967.29038435034;-35684.9345138136;1303.645728927091;320830.25013404223;43500.0;277330.25013404223
0.4040000000000003;-11181996784.0;-11067723496.0;16144697.0;-32604.494702651307;-34381.28878488651;1382.6802205361673;340698.92042475747;52333.333333333336;288365.58709142415
0.4080000000000003;-11306651397.0;-11199717930.0;17721146.0;-31163.651712953742;-32998.60856435034;1457.382621699031;360210.7474243912;61916.666666666664;298294.0807577246
0.4120000000000003;-11425225412.0;-11325882833.0;19231436.0;-29643.50232663246;-31541.22594265131;1531.460389697564;380037.34658032045;72000.0;308037.34658032045
0.4160000000000003;-11537389998.0;-11445921895.0;20696483.0;-28041.145229454425;-30009.765552953744;1608.0522063212848;400589.27429450885;82833.33333333333;317755.94096117554
0.4200000000000003;-11642803353.0;-11559528748.0;22138750.0;-26353.33742549819;-28401.71334663246;1688.893117178035;421951.95098905877;94083.33333333333;327868.61765572545
0.4240000000000003;-11741112621.0;-11666380028.0;23576675.0;-24577.315991513617;-26712.820229454424;1774.0833039562349;444005.35849614337;106166.66666666667;337838.6918294767
0.4280000000000003;-11831957951.0;-11766134975.0;25022354.0;-22711.331284485263;-24938.73692549819;1862.7621739845745;466496.1767570885;118833.33333333333;347662.8434237552
0.43200000000000033;-11914979692.0;-11858438874.0;26480923.0;-20755.434345415855;-23075.974751513615;1953.4988470283533;488974.2347673518;132333.33333333334;356640.9014340185
0.43600000000000033;-11989827718.0;-11942928777.0;27949085.0;-18712.005480228618;-21122.47590448526;2043.9866590694073;510857.2162968094;146500.0;364357.2162968094
0.44000000000000034;-12056180640.0;-12019242733.0;29415015.0;-16588.229740155384;-19078.489245415854;2131.3846651872373;530943.9350183083;161583.33333333334;369360.60168497503
0.44400000000000034;-12113803027.0;-12087031151.0;30850511.0;-14405.596088275686;-16947.104580228617;2209.9055000732333;545658.4129699245;177333.33333333334;368325.07963659114
0.44800000000000034;-12162638973.0;-12145979947.0;32176920.0;-12208.985980498188;-14737.199080155384;2262.2181918796978;549152.5269443745;193833.33333333334;355319.19361104124
0.45200000000000035;-12202883158.0;-12195879870.0;33240897.0;-10061.04570837864;-12474.980888275686;2260.448727777499;536985.0680298868;211000.0;325985.06802988687
0.45600000000000035;-12234993269.0;-12236737998.0;33854840.0;-8027.527392398638;-10214.532160498187;2184.7768521195467;508379.57899500063;228666.66666666666;279712.912328334
0.46000000000000035;-12259662670.0;-12268857019.0;33863750.0;-6167.349836436328;-8029.755308378641;2034.0529159800026;465044.38899057754;246416.66666666666;218627.7223239109
0.46400000000000036;-12277769580.0;-12292839828.0;33177158.0;-4526.727475048059;-5995.702392398638;1818.98203596231;410155.5903470671;263583.3333333333;146572.2570137338
0.46800000000000036;-12290310027.0;-12309546709.0;31777129.0;-3135.1114491728326;-4176.720356436328;1556.6206213882688;347904.00646880665;279750.0;68154.00646880665
0.47200000000000036;-12298341137.0;-12320027107.0;29717080.0;-2007.7775276851423;-2620.0997350480593;1268.0130858752266;281833.4803719226;294416.6666666667;-12583.18629474411
0.47600000000000037;-12302948518.0;-12325435453.0;27094316.0;-1151.845152056596;-1352.0866491728327;969.9680814876901;213983.09390713662;307166.6666666667;-93183.57275953009
0.48000000000000037;-12305196590.0;-12326963927.0;24015409.0;-562.0180473824296;-382.1185676851426;671.1979556285467;147456.77616854158;317750.0;-170293.22383145842
0.4840000000000004;-12306028036.0;-12325807610.0;20611020.0;-207.861534741884;289.0793879434041;385.5637646741661;88539.1281601364;325833.3333333333;-237294.2051731969
0.4880000000000004;-12306160004.0;-12323109038.0;17081002.0;-32.99199490877937;674.6431526175702;142.3554326405456;43717.384958276154;331416.6666666667;-287699.2817083905
0.4920000000000004;-12306046182.0;-12319841044.0;13681040.0;28.45562341437491;816.9985852581158;-29.128180166895163;15361.904580788569;334500.0;-319138.09541921143
0.4960000000000004;-12305913809.0;-12316689563.0;10643381.0;33.093159194500856;787.8704050912206;-120.81192167684571;1159.383945031487;335083.3333333333;-333923.9493883018
0.5000000000000003;-12305838733.0;-12314021330.0;8107521.0;18.769082780199344;667.0584834143749;-147.51406421987417;-3581.019103575378;333583.3333333333;-337164.3524369087
