Zeit[sec];Sollposition[°];Istposition[°];Positionsschleppfehler[°];Sollgeschwindigkeit[°/s];Istgeschwindigkeit[°/s];Geschwindigkeitsdifferenz[°/s];Sollbeschleunigung[°/s*s];Istbeschleunigung[°/s*s];Beschleunigungsdifferenz[°/s*s]
0.0;-9979199169.0;-9980870361.0;1667722.0;0.3818113581474905;-43.86673536147922;144.8870765982846;-103.30757156580566;-2250.0;2146.6924284341944
0.004;-9979198888.0;-9981123047.0;1922939.0;0.07023221100864682;-54.69929995841533;170.70843373675848;-77.89478678471092;-3083.3333333333335;3005.4385465486225
0.008;-9979199210.0;-9981177979.0;1978913.0;-0.08057425311968701;-10.440438190832735;129.43591455681863;-37.70161603208346;250.0;-287.70161603208345
0.012;-9979199646.0;-9981139526.0;1940509.0;-0.10898995660588229;7.604079751804472;108.83872571164727;-7.10392587154882;2750.0;-2757.1039258715487
0.016;-9979199957.0;-9981079102.0;1879721.0;-0.07774329720206423;15.197138108581305;97.49516488751986;7.811664850954514;5750.0;-5742.188335149045
0.02;-9979200097.0;-9980875854.0;1676087.0;-0.03498231373327734;50.95728457958997;49.51150077433948;10.690245867196722;5916.666666666667;-5905.97642079947
0.024;-9979200114.0;-9980617676.0;1417665.0;-0.0043347327145035865;63.68504233366251;21.313885345066794;7.661895254693439;4750.0;-4742.338104745307
0.028;-9979200076.0;-9980255127.0;1055024.0;0.009531150042747922;89.26156604927779;-25.98320762865483;3.466470689312877;5416.666666666667;-5413.200195977354
0.032;-9979200031.0;-9979865112.0;665014.0;0.011309958750880098;95.01911687978357;-55.11729358243709;0.444702177033044;5333.333333333333;-5332.8886311563
0.036000000000000004;-9979196042.0;-9979612427.0;412370.0;0.9973107157865557;61.13374477672577;-36.38138960224812;246.5001892589189;1833.3333333333333;-1586.8331440744143
0.04000000000000001;-9978870631.0;-9979475098.0;276649.0;81.3527714293741;31.982305725276472;-14.981132295330326;20088.865178396885;-2500.0;22588.865178396885
0.04400000000000001;-9977941411.0;-9979376221.0;309177.0;232.30485052815297;22.130793566524982;29.271044420007943;37738.019774694716;-5583.333333333333;43321.35310802805
0.048000000000000015;-9975965819.0;-9979205933.0;701817.0;493.8979411825398;51.1639737072438;131.67712568095283;65398.272663596705;-4666.666666666667;70064.93933026337
0.05200000000000002;-9972403686.0;-9978338013.0;1174450.0;890.5332784427798;250.92283126980067;154.6821074722983;99158.83431506;5250.0;93908.83431506
0.05600000000000002;-9966606891.0;-9975849609.0;1284545.0;1449.198683965299;645.8875527816042;80.81003018198408;139666.35138062984;32333.333333333332;107333.0180472965
0.060000000000000026;-9957897786.0;-9971702271.0;1576053.0;2177.2761625270114;1056.105510279402;148.16901712689332;182019.36964042808;67750.0;114269.36964042806
0.06400000000000003;-9945357627.0;-9965407104.0;2219272.0;3135.039640530521;1623.4961072605029;244.2568106333472;239440.8695008774;98166.66666666667;141274.20283421074
0.06800000000000003;-9927903590.0;-9955739136.0;2762298.0;4363.50891932168;2488.8413539265694;229.6448635984998;307117.31969778973;130083.33333333333;177033.98636445642
0.07200000000000004;-9904506839.0;-9941896362.0;3385511.0;5849.187565401482;3514.5169982118978;305.11028114796545;371419.66151995055;176416.66666666666;195002.99485328386
0.07600000000000004;-9874289371.0;-9922928467.0;4199054.0;7554.366734013919;4821.516678135112;375.78578844793265;426294.7921531093;233666.66666666666;192628.1254864426
0.08000000000000004;-9836427591.0;-9897412720.0;4749545.0;9465.444463366272;6450.063375165179;351.4686388498176;477769.4323380881;299083.3333333333;178686.0990047548
0.08400000000000005;-9790150359.0;-9864739380.0;5284559.0;11569.307466090599;8245.92291467502;373.23853424648405;525965.7506810818;360583.3333333333;165382.41734774847
0.08800000000000005;-9734859506.0;-9824007568.0;5706331.0;13822.712534842734;10270.89650081762;359.87890919899655;563351.2671880339;425166.6666666667;138184.60052136725
0.09200000000000005;-9670093444.0;-9774569092.0;6069538.0;16191.514714586518;12483.28680431916;331.3055197959475;592200.5449359458;475833.3333333333;116367.21160261249
0.09600000000000006;-9595540338.0;-9715869141.0;6364398.0;18638.275672153006;14789.441995121211;341.12392613111297;611690.239391622;522250.0;89440.23939162208
0.10000000000000006;-9511136229.0;-9647484741.0;6570951.0;21101.026279174086;17205.5784504748;336.41611287490014;615687.6517552701;560583.3333333334;55104.31842193668
0.10400000000000006;-9416994134.0;-9569196167.0;6683906.0;23535.52258373669;19688.43897449445;312.97670287843357;608624.0761406507;590416.6666666666;18207.40947398406
0.10800000000000007;-9313391320.0;-9480778198.0;6473284.0;25900.702273750023;22251.41524959731;188.8176359930876;591294.9225033335;609583.3333333334;-18288.410829999862
0.11200000000000007;-9200853031.0;-9382461548.0;5992698.0;28134.57083415134;24593.399447403648;225.17718070610863;558467.1401003288;627250.0;-68782.85989967117
0.11600000000000008;-9080073775.0;-9276525879.0;7147185.0;30194.81262258011;26658.07244435928;543.2964346474328;515060.4471071929;595666.6666666666;-80606.21955947374
0.12000000000000008;-8951828728.0;-9159658813.0;6033467.0;32061.260359671185;29365.849937628784;-65.50647923944416;466611.93427276885;583000.0;-116388.06572723115
0.12400000000000008;-8816989963.0;-9034738770.0;4804462.0;33709.68958441009;31153.847158834687;57.17881902694353;412107.30618472554;580833.3333333334;-168726.02714860783
0.12800000000000009;-8676539828.0;-8904490356.0;5371657.0;35112.53207859537;32754.145909653053;272.054083711002;350710.6235463216;524583.3333333334;-173872.7097870118
0.1320000000000001;-8531484531.0;-8765480347.0;3386598.0;36263.82236164657;34663.91509585639;-204.48326690446265;287822.57076279895;494583.3333333333;-206760.76257053437
0.1360000000000001;-8382754212.0;-8624014893.0;4164275.0;37182.57814059511;35410.59916814673;400.03823852847563;229688.9447371359;389583.3333333333;-159894.38859619742
0.1400000000000001;-8231246852.0;-8475704956.0;2339740.0;37876.838272256915;37184.582944550115;-422.8497136117221;173565.03291545052;361000.0;-187434.96708454948
0.1440000000000001;-8077801278.0;-8325494385.0;1939008.0;38361.391492605624;37443.98516941372;124.81341092848743;121138.30508717729;311416.6666666667;-190278.3615794894
0.1480000000000001;-7923080085.0;-8173679810.0;2383993.0;38680.29653363346;38110.16224610947;97.76545641259145;79726.260256959;209583.33333333334;-129857.07307637435
0.1520000000000001;-7767601345.0;-8019041748.0;1685911.0;38869.68310412856;38629.93186421693;-43.78402476061456;47346.64262377555;189583.33333333334;-142236.6907095578
0.1560000000000001;-7611846093.0;-7863354492.0;1012729.0;38938.81111220217;38929.976752992574;-115.69624754779215;17282.002018402636;104416.66666666667;-87134.66464826404
0.16000000000000011;-7456291246.0;-7708364868.0;1607039.0;38888.709963256915;38722.0806114996;270.3233207684607;-12525.287236314398;106833.33333333333;-119358.62056964773
0.16400000000000012;-7301349651.0;-7552430420.0;1346766.0;38735.396907659764;39054.3391204204;-54.99141786676046;-38328.26389928778;29833.333333333332;-68161.5972326211
0.16800000000000012;-7147370585.0;-7396902466.0;1131688.0;38494.76475571055;38818.305469365456;77.81310428331926;-60158.03798730303;21416.666666666668;-81574.7046539697
0.17200000000000013;-6994726669.0;-7241660156.0;452939.0;38160.97711243231;38819.44594128853;-151.38126331413514;-83446.9108195608;-8333.333333333334;-75113.57748622747
0.17600000000000013;-6843851928.0;-7088735962.0;984084.0;37718.68350292113;38166.25520766566;256.6229569322386;-110573.40237779499;-14250.0;-96323.40237779499
0.18000000000000013;-6695250243.0;-6936838989.0;1037400.0;37150.41937261384;38049.73006972608;0.08432434497080976;-142066.03257682218;-87500.0;-54566.03257682218
0.18400000000000014;-6549502581.0;-6785908813.0;91100.0;36436.91390549028;37647.80737541844;-146.37415691892238;-178376.36678089073;-70583.33333333333;-107793.03344755742
0.18800000000000014;-6407248984.0;-6637829590.0;-504694.0;35563.39751524326;36960.86359450796;-120.28995844715973;-218379.09756175394;-102750.0;-115629.09756175395
0.19200000000000014;-6269127557.0;-6493672485.0;-282757.0;34530.35512827904;35968.397931255655;109.39565029168443;-258260.59674105456;-120666.66666666667;-137593.93007438787
0.19600000000000015;-6135724138.0;-6352542114.0;-777399.0;33350.8530400112;35338.913434242524;-226.62676404415834;-294875.5220669609;-198833.33333333334;-96042.18873362757
0.20000000000000015;-6007601243.0;-6215037231.0;-2007259.0;32030.722395637968;34210.78820757955;-262.4697848423748;-330032.661093308;-200333.33333333334;-129699.32775997464
0.20400000000000015;-5885308525.0;-6084777832.0;-929240.0;30573.177920306785;32598.462818189975;180.13579341703735;-364386.11883279553;-263916.6666666667;-100469.45216612886
0.20800000000000016;-5769342753.0;-5957687988.0;-2176822.0;28991.441666100167;31687.70583535245;-357.7512295564229;-395434.06355165463;-283083.3333333333;-112350.7302183213
0.21200000000000016;-5660138994.0;-5838420410.0;-1626056.0;27300.93844784165;29757.44999952886;99.57115027413965;-422625.8045646291;-345083.3333333333;-77542.47123129579
0.21600000000000016;-5558078529.0;-5724596558.0;-2128097.0;25515.114995496737;28403.840503470452;-201.07478343253024;-446455.86308622843;-358583.3333333333;-87872.5297528951
0.22000000000000017;-5463493496.0;-5618188477.0;-2125002.0;23646.257049615426;26431.950545770393;43.3419790023363;-467214.48647032777;-380750.0;-86464.48647032776
0.22400000000000017;-5376681745.0;-5520201416.0;-973635.0;21702.93686609174;24502.965100484038;223.22262966717244;-485830.0458809217;-448750.0;-37080.045880921716
0.22800000000000017;-5297890187.0;-5427460327.0;-2167874.0;19697.88851705974;23044.44637618477;-287.80751543194856;-501262.08725800004;-435000.0;-66262.08725800007
0.23200000000000018;-5227289680.0;-5344024658.0;-1926127.0;17650.125824667728;20735.15609379078;68.62945249059703;-511940.6730980027;-463000.0;-48940.67309800266
0.23600000000000018;-5165010104.0;-5268828735.0;-1531122.0;15569.893367715309;18754.42095764703;51.44265834149701;-520058.1142381047;-474666.6666666667;-45391.44757143805
0.24000000000000019;-5111070652.0;-5201059570.0;-1950905.0;13484.862380313436;16825.46381121114;-105.1733425671664;-521257.7468504683;-498750.0;-22507.746850468266
0.2440000000000002;-5065259590.0;-5141771851.0;-2217022.0;11452.764817264982;14741.871850757881;-119.49314888576919;-508024.3907621134;-516083.3333333333;8058.942571219915
0.2480000000000002;-5027208964.0;-5090971069.0;-2252263.0;9512.656167324592;12620.699782716163;-64.45113618515643;-485027.16248509753;-500833.3333333333;15806.170848235808
0.25200000000000017;-4996457527.0;-5048245239.0;-2196296.0;7687.858911340783;10576.872810022543;-13.201696602807715;-456199.31399595225;-517333.3333333333;61134.01933738106
0.25600000000000017;-4972394198.0;-5012907715.0;-2331737.0;6015.831971553555;8755.905978934594;-95.28980702968329;-418006.734946807;-511166.6666666667;93159.93171985968
0.2600000000000002;-4954246226.0;-4984557495.0;-2539481.0;4536.992618910174;7001.826348967955;-118.57668241010742;-369709.8381608453;-483333.3333333333;113623.49517248805
0.2640000000000002;-4941138202.0;-4962760620.0;-2579186.0;3277.0059359710012;5387.225031387668;-102.68388344198775;-314996.6707347933;-453333.3333333333;138336.66259854005
0.2680000000000002;-4932152501.0;-4946693115.0;-2462319.0;2246.425227085262;3985.984342051741;-87.63082130311977;-257645.17722143477;-418416.6666666667;160771.4894452319
0.2720000000000002;-4926337768.0;-4934932251.0;-2720065.0;1453.683200676946;2890.5823715911843;-178.00674939945065;-198185.50660207905;-373500.0;175314.49339792095
0.2760000000000002;-4922814662.0;-4927120972.0;-2778728.0;880.7763227935916;1935.7617227783576;-164.331443728757;-143226.71947083858;-317916.6666666667;174689.9471958281
0.2800000000000002;-4921070015.0;-4922056274.0;-2918707.0;436.1617421536958;1249.721584310811;-193.66445623370123;-111153.64515997395;-258750.0;147596.35484002606
0.2840000000000002;-4920445115.0;-4918793335.0;-3350244.0;156.22492060157154;809.7242245132811;-302.88839960302295;-69984.20538803107;-202916.66666666666;132932.4612786356
0.2880000000000002;-4920286353.0;-4917013550.0;-3818924.0;39.6906606585424;426.6787052921392;-328.0378153125434;-29133.564985757286;-148416.66666666666;119283.10168090937
0.2920000000000002;-4920338269.0;-4916716919.0;-3668910.0;-12.979135481059796;64.47424493367225;-172.94768273790748;-13167.449034900548;-111083.33333333333;97915.88429843278
0.2960000000000002;-4920437019.0;-4916892700.0;-3415167.0;-24.687329224751323;-20.39574263291806;-165.02354998299518;-2927.0484359228817;-86000.0;83072.95156407711
0.3000000000000002;-4920514169.0;-4916964111.0;-3413007.0;-19.287692621667652;-28.48195148849115;-193.61110778466687;1349.9091507709177;-53750.0;55099.909150770916
0.3040000000000002;-4920592631.0;-4917343140.0;-3123889.0;-19.61533536005627;-95.29690431951731;-114.61429066372993;-81.91068459715467;-25500.0;25418.089315402845
0.3080000000000002;-4920572593.0;-4917645264.0;-2899562.0;5.009569255751198;-67.11073926927521;-126.31221707448013;6156.226153951868;-6333.333333333333;12489.5594872852
0.3120000000000002;-4920555900.0;-4917760620.0;-2823606.0;4.173237346362893;-33.33009385421127;-145.93629180812215;-209.08297734707614;-2000.0;1790.9170226529238
0.3160000000000002;-4920547643.0;-4917947388.0;-2618703.0;2.0641173927577374;-40.5873107320033;-112.0011790971058;-527.279988401289;1333.3333333333333;-1860.6133217346223
0.32000000000000023;-4920546276.0;-4917996826.0;-2555897.0;0.3418248242393696;-8.473257116094231;-141.53865826185913;-430.57314212959193;5333.333333333333;-5763.906475462925
0.32400000000000023;-4920548844.0;-4918018799.0;-2528349.0;-0.6421629878035608;-8.725128306943924;-141.58219826815653;-245.99695301073262;3416.6666666666665;-3662.6636196773993
0.32800000000000024;-4920556601.0;-4918051758.0;-2495544.0;-1.939025385129338;-8.079168539013713;-141.6916908714017;-324.2155993314443;2750.0;-3074.215599331444
0.33200000000000024;-4920678252.0;-4918073730.0;-2478174.0;-30.41284864577059;-4.216989000581205;-145.62403411071057;-7118.455815160313;2000.0;-9118.455815160314
0.33600000000000024;-4920913434.0;-4918128662.0;-2476126.0;-58.79543002275007;-16.937766097377985;-144.85064650396654;-7095.645344244869;-250.0;-6845.645344244869
0.34000000000000025;-4921366277.0;-4918375854.0;-2394931.0;-113.21081097593103;-62.05562944701687;-123.13949042873314;-13603.84523829524;-2416.6666666666665;-11187.178571628572
0.34400000000000025;-4922081131.0;-4918914185.0;-2177416.0;-178.71351675960932;-133.8765639693439;-76.97237017322794;-16375.676445919573;-7583.333333333333;-8792.34311258624
0.34800000000000025;-4923120276.0;-4919727173.0;-1919879.0;-259.78634071533884;-205.5836359545365;-48.47187426208623;-20268.20598893238;-13500.0;-6768.205988932379
0.35200000000000026;-4924625476.0;-4920919189.0;-1569758.0;-376.2998968631193;-300.3409913005494;-4.318308477939354;-29128.389036945107;-17750.0;-11378.38903694511
0.35600000000000026;-4926755253.0;-4922380371.0;-1330604.0;-532.4441627415422;-367.97463978188483;-17.368709343842966;-39036.06646960573;-19666.666666666668;-19369.39980293906
0.36000000000000026;-4929649805.0;-4924275513.0;-1185567.0;-723.6379881656819;-484.16936827113483;-24.49061364055541;-47798.456356034934;-20583.333333333332;-27215.123022701602
0.36400000000000027;-4933430411.0;-4926785889.0;-1104529.0;-945.1515594589566;-639.7154061866701;-33.890953124096086;-55378.392823318674;-24916.666666666668;-30461.72615665201
0.36800000000000027;-4938208518.0;-4929993896.0;-1137900.0;-1194.5267137709027;-813.2691397416964;-65.34924197132352;-62343.78857798652;-31833.333333333332;-30510.45524465318
0.3720000000000003;-4944083679.0;-4934086304.0;-1216400.0;-1468.7900213380838;-1041.209706198711;-74.50127437631613;-68565.82689179527;-41250.0;-27315.826891795266
0.3760000000000003;-4951131358.0;-4939161987.0;-1347944.0;-1761.9197090118032;-1283.2887011480666;-99.39458616429238;-73282.42191842986;-50000.0;-23282.42191842986
0.3800000000000003;-4959404989.0;-4945347290.0;-1496259.0;-2068.4075887404624;-1559.8559311909862;-113.32395959060818;-76621.96993216481;-57833.333333333336;-18788.636598831465
0.3840000000000003;-4968941577.0;-4952708130.0;-1662298.0;-2384.146930250936;-1849.2490469662212;-132.20864072114114;-78934.83537761835;-65750.0;-13184.835377618356
0.3880000000000003;-4979761653.0;-4961288452.0;-1849167.0;-2705.0189995272394;-2162.645671084702;-140.10182571716632;-80218.0173190759;-70083.33333333333;-10134.68398574257
0.3920000000000003;-4991871150.0;-4971231079.0;-1944611.0;-3027.373998077389;-2494.336223467406;-131.85809342130688;-80588.74963753737;-76250.0;-4338.749637537376
0.3960000000000003;-5005265658.0;-4982525024.0;-1974456.0;-3348.626827630065;-2837.2459983859994;-112.16897148857242;-80313.20738816896;-79583.33333333333;-729.8740548356336
0.4000000000000003;-5019934979.0;-4995159302.0;-1951607.0;-3667.3302038817214;-3183.0341318791807;-86.91921472076092;-79675.84406291417;-83583.33333333333;3907.4892704191625
0.4040000000000003;-5035866817.0;-5009177856.0;-1825475.0;-3982.9591927237884;-3515.4670773196817;-67.16681845572839;-78907.24721051674;-84916.66666666667;6009.419456149928
0.4080000000000003;-5053048664.0;-5024448853.0;-1716898.0;-4295.461517179756;-3828.446228408594;-65.17241525080453;-78125.58111399187;-84333.33333333333;6207.752219341458
0.4120000000000003;-5071468160.0;-5041071167.0;-1514633.0;-4604.873714168334;-4162.85145776698;-33.0386151482744;-77353.04924714455;-83166.66666666667;5813.617419522117
0.4160000000000003;-5091113047.0;-5058775635.0;-1475396.0;-4911.221700058746;-4434.57088107749;-70.26042933527879;-76586.996472603;-79500.0;2913.003527396995
0.4200000000000003;-5111970780.0;-5077820435.0;-1328689.0;-5214.432797309286;-4772.660644539189;-31.583637255663234;-75802.77431263494;-77250.0;1447.2256873650622
0.4240000000000003;-5134027986.0;-5097848511.0;-1419194.0;-5514.301415405546;-5024.024884640548;-90.77191007485999;-74967.1545240651;-75083.33333333333;116.17880926822
0.4280000000000003;-5157270454.0;-5118958740.0;-1635164.0;-5810.616637686664;-5293.112972003721;-136.5462594105975;-74078.80557027942;-70250.0;-3828.805570279428
0.43200000000000033;-5181683097.0;-5141376343.0;-1737677.0;-6103.16042858239;-5622.464909280442;-111.82443914999931;-73135.9477239314;-70666.66666666667;-2469.281057264723
0.43600000000000033;-5207249782.0;-5164947510.0;-1865989.0;-6391.670989742293;-5909.002728379794;-127.82606939474226;-72127.64028997594;-72250.0;122.35971002405677
0.44000000000000034;-5233953541.0;-5189622803.0;-2054042.0;-6675.939466444148;-6175.012231417239;-164.0665229127153;-71067.11917546362;-74916.66666666667;3849.5474912030404
0.44400000000000034;-5261776634.0;-5215539551.0;-2148049.0;-6955.772796271468;-6493.700020573813;-137.87142691648387;-69958.33245683002;-73166.66666666667;3208.33420983665
0.44800000000000034;-5290700368.0;-5242868042.0;-1960453.0;-7230.933203837546;-6862.123575051524;-40.72697866769795;-68790.1018915195;-74416.66666666667;5626.564775147173
0.45200000000000035;-5320705282.0;-5271245728.0;-1835689.0;-7501.228136603321;-7123.099830446407;-50.27145962670329;-67573.73319144381;-77750.0;10176.266808556193
0.45600000000000035;-5351771180.0;-5300815430.0;-1611943.0;-7766.474319334772;-7404.814237588171;-28.390995719589228;-66311.54568286275;-78083.33333333333;11771.787650470586
0.46000000000000035;-5383876942.0;-5331478271.0;-1368344.0;-8026.440042846304;-7652.442547975302;-34.468436237687456;-64991.43087788297;-74583.33333333333;9591.902455450352
0.46400000000000036;-5417000693.0;-5362954102.0;-1364484.0;-8280.937217018849;-7863.687616808854;-86.17391308187962;-63624.29354313622;-66333.33333333333;2709.03979019711
0.46800000000000036;-5451119853.0;-5395561523.0;-1260349.0;-8529.789645683877;-8158.099467957545;-43.34243126857473;-62213.10716625703;-62416.666666666664;203.55950040963216
