Zeit[sec];Sollposition[°];Istposition[°];Positionsschleppfehler[°];Sollgeschwindigkeit[°/s];Istgeschwindigkeit[°/s];Geschwindigkeitsdifferenz[°/s];Sollbeschleunigung[°/s*s];Istbeschleunigung[°/s*s];Beschleunigungsdifferenz[°/s*s]
0.0;1304.0;-4850464.0;4846319.0;0.5994544617712824;51.18707910707671;415.56209488010626;-162.19576385493932;5666.666666666667;-5828.862430521606
0.004;1745.0;-4762573.0;4762402.0;0.1102665263823839;22.782272181331457;435.40182366856504;-122.29698384722461;2083.3333333333335;-2205.630317180558
0.008;1239.0;-4713135.0;4714600.0;-0.12650382065155372;14.843186452386592;438.1677140997798;-59.1925867584844;-3166.6666666666665;3107.474079908182
0.012;554.0;-4658203.0;4659744.0;-0.17111726609726266;14.795887099177147;432.55879401970185;-11.153361361427235;-4583.333333333333;4572.179971971906
0.016;66.0;-4559326.0;4560295.0;-0.12205914205272271;29.63416422238207;408.0113507491845;12.264531011134988;-1666.6666666666667;1678.9311976778017
0.02;-153.0;-4411011.0;4411375.0;-0.05492320632285851;41.39798758012891;381.9426073403312;16.78398393246605;1416.6666666666667;-1399.8826827342007
0.024;-180.0;-4158325.0;4158307.0;-0.006805650175885011;64.34692945677097;334.7548143007486;12.029389036743375;3083.3333333333335;-3071.30394429659
0.028;-120.0;-3993530.0;3993368.0;0.014964170513433066;33.99516004588535;349.3319292323438;5.442455172329519;3583.3333333333335;-3577.890878161004
0.032;-49.0;-3922119.0;3921964.0;0.017756949716930835;15.380138259569561;361.12994954519877;0.6981948008744423;-416.6666666666667;417.3648614675411
0.036000000000000004;-3416.0;-3834229.0;3834138.0;-0.8417794203191351;23.681464617118486;344.4117272891689;-214.88409250901648;-2833.3333333333335;2618.449240824317
0.04000000000000001;-196808.0;-3729858.0;3728474.0;-48.34801352977745;27.44778090428855;330.16267094102426;-11876.558527364577;-3000.0;-8876.558527364577
0.04400000000000001;-842149.0;-3619995.0;3539922.0;-161.33527027324402;25.067399493743633;295.0928898923632;-28246.814185866642;250.0;-28496.814185866642
0.048000000000000015;-2265798.0;-3641968.0;3190426.0;-355.91213180094974;-13.047276833998158;226.46083427180798;-48644.21538192643;-166.66666666666666;-48477.54871525976
0.05200000000000002;-4871352.0;-3762817.0;2359995.0;-651.3885366512117;-33.460620882907705;22.20021998487104;-73869.10121256548;-3583.3333333333335;-70285.76787923215
0.05600000000000002;-9318499.0;-4531860.0;1241342.0;-1111.7867894380531;-218.1083520287337;-134.64662667850524;-115099.56319671037;-10166.666666666666;-104932.8965300437
0.060000000000000026;-16336134.0;-6751099.0;131790.0;-1754.4084753265172;-576.1989508383772;-243.34715226044784;-160655.42147211602;-32000.0;-128655.42147211602
0.06400000000000003;-26715672.0;-10881958.0;-1192866.0;-2594.884557953704;-1069.4289267076983;-408.96481020886586;-210119.02065679675;-63750.0;-146369.02065679675
0.06800000000000003;-41366251.0;-17995605.0;-2414735.0;-3662.644538348231;-1825.9206012926838;-489.77270691596914;-266939.9950986317;-108583.33333333333;-158356.66176529837
0.07200000000000004;-61226053.0;-28828125.0;-3635455.0;-4964.950202223993;-2777.612113438493;-584.7016084453035;-325576.41596894054;-155416.66666666666;-170159.74930227388
0.07600000000000004;-87153954.0;-44708862.0;-4445647.0;-6481.975064793613;-4039.698321945944;-559.8157694679044;-379256.21564240486;-212833.33333333334;-166422.88230907152
0.08000000000000004;-119913777.0;-66379395.0;-5010300.0;-8189.955118927727;-5488.919896635232;-550.8650628348669;-426995.01353352866;-275583.3333333333;-151411.68020019535
0.08400000000000005;-160185219.0;-94438477.0;-5552314.0;-10067.860050425626;-7114.736432269351;-568.5593632459713;-469476.23287447484;-332000.0;-137476.2328744748
0.08800000000000005;-208513704.0;-129968262.0;-5720560.0;-12082.120727020558;-8988.60210497441;-485.07904139798666;-503565.1691487328;-384916.6666666667;-118648.50248206613
0.09200000000000005;-265291601.0;-172963257.0;-6147486.0;-14194.473535836732;-10804.970860699259;-640.6673819651878;-528088.2022040436;-430583.3333333333;-97504.86887071037
0.09600000000000006;-330766246.0;-223648682.0;-7093396.0;-16368.660532421545;-12816.511585031623;-772.2877325199861;-543546.7491462032;-455916.6666666667;-87630.0824795365
0.10000000000000006;-404999322.0;-284265747.0;-6652845.0;-18558.26811210946;-15226.496880974619;-456.30388009701346;-547401.8949219789;-499416.6666666667;-47985.22825531228
0.10400000000000006;-487865402.0;-353012695.0;-6802165.0;-20716.518958760633;-17251.780510463897;-625.293677752361;-539562.711662793;-530333.3333333334;-9229.378329459563
0.10800000000000007;-579075646.0;-430856323.0;-6563145.0;-22802.55998042784;-19587.37103989902;-443.84199832592276;-521510.25541680155;-551833.3333333334;30323.077916531816
0.11200000000000007;-678143444.0;-516714478.0;-6828817.0;-24766.94823808517;-21545.405948545733;-641.1161118603814;-491097.0644143326;-548833.3333333334;57736.26891900074
0.11600000000000008;-784388099.0;-610834351.0;-6985694.0;-26561.162667759712;-23565.361724736835;-674.4512336742882;-448553.6074186357;-525916.6666666666;77363.05924803094
0.12000000000000008;-897006569.0;-713144531.0;-6542783.0;-28154.61598781054;-25770.76670020762;-324.1566051958398;-398363.3300127067;-515750.0;117386.66998729331
0.12400000000000008;-1015122400.0;-822024536.0;-6392499.0;-29528.956340349112;-27169.011819796764;-627.0971204810958;-343585.0881346432;-504916.6666666667;161331.57853202347
0.12800000000000009;-1137800839.0;-936776733.0;-6401044.0;-30669.60830789901;-28703.650099435326;-601.0339475415676;-285162.99188747414;-448083.3333333333;162920.34144585914
0.1320000000000001;-1264101623.0;-1057461548.0;-5608851.0;-31575.194627897017;-30191.28694315071;-320.3170001417857;-226396.57999950214;-412583.3333333333;186186.75333383118
0.1360000000000001;-1393174708.0;-1181370850.0;-5787457.0;-32268.26959388232;-31082.063417751022;-495.5080806185979;-173268.74149632567;-333250.0;159981.25850367433
0.1400000000000001;-1524280476.0;-1310169067.0;-4367974.0;-32776.44056225876;-32279.089213847958;15.081857077857421;-127042.74209410959;-306250.0;179207.2579058904
0.1440000000000001;-1656771398.0;-1439483643.0;-4916166.0;-33122.728968672316;-32306.35321133397;-631.2891812093912;-86572.10160338946;-245416.66666666666;158844.5650632772
0.1480000000000001;-1790141125.0;-1571099854.0;-4943005.0;-33342.430077584904;-32973.39155934074;-411.89786103679944;-54925.277228147024;-161750.0;106824.72277185298
0.1520000000000001;-1923868937.0;-1706292114.0;-2581983.0;-33431.95152109943;-33616.49167989914;160.81332000415568;-22380.36087863111;-156916.66666666666;134536.30578803556
0.1560000000000001;-2057670034.0;-1838979492.0;-3401158.0;-33450.27263697458;-33123.71234621716;-579.4354417636641;-4580.278968787752;-89916.66666666667;85336.38769787892
0.16000000000000011;-2191334208.0;-1972842407.0;-3293013.0;-33416.04195183425;-33568.73083250214;-186.08943306627043;8557.671285081597;-54416.666666666664;62974.33795174826
0.16400000000000012;-2324461137.0;-2108106079.0;-1775721.0;-33281.73048916825;-33731.80751280827;124.74494192573911;33577.86566650066;-22916.666666666668;56494.53233316733
0.16800000000000012;-2456659436.0;-2241145020.0;-2188747.0;-33049.57337204871;-33303.21469772133;-269.8951402031453;58039.279279884795;-3083.3333333333335;61122.61261321813
0.17200000000000013;-2587553840.0;-2374035645.0;-2060011.0;-32723.599405792615;-33302.61541621346;-85.61644069838803;81493.49156402423;-250.0;81743.49156402423
0.17600000000000013;-2716751044.0;-2506267090.0;-1515333.0;-32299.299292868065;-33076.5018046472;9.339753267711785;106075.02823113737;47000.0;59075.02823113737
0.18000000000000013;-2843824995.0;-2636460571.0;-1550982.0;-31768.486405929867;-32517.523834292075;-188.6514821237579;132703.2217345495;56416.666666666664;76286.55506788284
0.18400000000000014;-2968302354.0;-2764423828.0;-1953037.0;-31119.338264703754;-31955.338254104583;-323.4797085180653;162287.0353065282;77500.0;84787.0353065282
0.18800000000000014;-3089577024.0;-2890739136.0;-1694613.0;-30318.665966268025;-31526.54648730185;-150.3559033309466;200168.07460893234;118333.33333333333;81834.741275599
0.19200000000000014;-3207286752.0;-3014588013.0;-1068493.0;-29427.430696035277;-30866.439412460746;-41.82372680783374;222808.817558187;129000.0;93808.817558187
0.19600000000000015;-3320891514.0;-3134690552.0;-845946.0;-28401.18920379718;-29991.901573601524;-59.305788818997826;256560.37305952396;149666.66666666666;106893.7063928573
0.20000000000000015;-3429961294.0;-3251046753.0;-592807.0;-27267.443679631262;-29141.868493885613;59.1949608379;283436.38104147976;188166.66666666666;95269.7143748131
0.20400000000000015;-3534073674.0;-3363508301.0;37976.0;-26028.093616905844;-28000.56904889823;46.5247929154757;309837.5156813545;217416.66666666666;92420.84901468783
0.20800000000000016;-3632822855.0;-3471536865.0;935720.0;-24687.294125452834;-26876.94010977824;184.06544499221854;335199.8728632525;243166.66666666666;92033.20619658584
0.21200000000000016;-3725838754.0;-3573621826.0;1005678.0;-23253.97359406796;-25516.260606322656;109.05630901206678;358330.1328462185;276583.3333333333;81746.79951288516
0.21600000000000016;-3812787095.0;-3670532227.0;1408630.0;-21737.08420313062;-24173.831615808092;182.19891839588308;379222.347734335;316500.0;62722.34773433502
0.22000000000000017;-3893370859.0;-3761905518.0;2138120.0;-20145.94003974813;-22735.19317181109;279.5036773645588;397786.04084562266;333833.3333333333;63952.70751228935
0.22400000000000017;-3967324910.0;-3846483765.0;2255930.0;-18488.511941222783;-21104.292038733165;205.7528909811008;414357.02463133656;354083.3333333333;60273.69129800326
0.22800000000000017;-4034433081.0;-3924228516.0;2008202.0;-16777.041989360372;-19352.084656895255;46.75324256607928;427867.4879656028;382250.0;45617.48796560278
0.23200000000000018;-4094561247.0;-3996232910.0;2733983.0;-15032.040715363464;-17942.00128254476;384.8113107525969;436250.318499227;406833.3333333333;29416.985165893664
0.23600000000000018;-4147628279.0;-4060415039.0;2535292.0;-13266.757321470643;-15909.23442729255;57.41806517784971;441320.8484732054;406166.6666666667;35154.181806538705
0.24000000000000019;-4193643964.0;-4117604370.0;2355188.0;-11503.920814189543;-14312.133278520825;195.87327744306094;440709.12682027486;437750.0;2959.1268202748324
0.2440000000000002;-4232833440.0;-4168800659.0;3238820.0;-9797.368508208376;-12645.333251042563;378.09632300238445;426638.0764952919;420500.0;6138.076495291898
0.2480000000000002;-4265584271.0;-4211828613.0;2916257.0;-8187.70724318736;-10709.247507614275;151.5795697066933;402415.31625525386;447083.3333333333;-44668.01707807946
0.25200000000000017;-4292324258.0;-4248918457.0;3329450.0;-6684.996547213298;-9232.777254509652;383.242157007051;375677.67399351555;423166.6666666667;-47488.99267315113
0.25600000000000017;-4313541975.0;-4279888916.0;3894557.0;-5304.429051395592;-7616.3485579028375;388.88848883987157;345141.8739544265;423750.0;-78608.1260455735
0.2600000000000002;-4329835755.0;-4304207153.0;3627081.0;-4073.4448180233676;-6062.17194237639;263.94366640340377;307746.0583430561;405916.6666666667;-98170.60832361056
0.2640000000000002;-4341889790.0;-4323801270.0;3923388.0;-3013.508647316431;-4869.100412921522;421.293361258553;264984.04267673416;376250.0;-111265.95732326587
0.2680000000000002;-4350427751.0;-4338654785.0;4135265.0;-2134.4900438569484;-3653.1735728946664;389.74952681152536;219754.65086487067;352083.3333333333;-132328.68246846265
0.2720000000000002;-4356214839.0;-4349371948.0;4167619.0;-1446.772029649221;-2679.6063384381755;408.49569322749903;171929.50355193188;308083.3333333333;-136153.82978140144
0.2760000000000002;-4359978045.0;-4357040405.0;4368191.0;-940.8012925373821;-1889.5566848065296;441.9319243594034;126492.6842779597;263333.3333333333;-136840.6490553736
0.2800000000000002;-4362097016.0;-4362258911.0;4585928.0;-529.7428623740382;-1285.8247456600518;475.88169774340065;102764.60754083598;226583.33333333334;-123818.72579249737
0.2840000000000002;-4363032727.0;-4365368042.0;4571908.0;-233.92771534620744;-787.9184736883379;446.03392163502195;73953.78675695768;177166.66666666666;-103212.87990970898
0.2880000000000002;-4363394319.0;-4367625732.0;5170137.0;-90.39783129177188;-552.953412961688;634.4212407832886;35882.47101360889;135750.0;-99867.52898639112
0.2920000000000002;-4363519300.0;-4368658447.0;5487837.0;-31.24548521013949;-243.27297090827673;591.3516720581747;14788.086520408098;97666.66666666667;-82878.58014625858
0.2960000000000002;-4363500442.0;-4368828735.0;5386982.0;4.714604417444751;-42.154777728069575;491.5192039879012;8990.02240689606;73250.0;-64259.97759310394
0.3000000000000002;-4363438108.0;-4368784790.0;5273700.0;15.583607064252094;3.4488354769684375;485.49189719600565;2717.2506617018357;54916.666666666664;-52199.41600496483
0.3040000000000002;-4363381542.0;-4368614502.0;5138665.0;14.141277649873885;45.11847506202758;457.0066554265861;-360.5823535945523;36250.0;-36610.58235359455
0.3080000000000002;-4363328583.0;-4368240967.0;4824922.0;13.239903351748458;93.44363110728563;384.6969413182035;-225.34357453135678;16833.333333333332;-17058.67690786469
0.3120000000000002;-4363342981.0;-4367905884.0;4545009.0;-3.5996337211354232;77.18306810578704;372.9301438677154;-4209.884268220971;7916.666666666667;-12126.550934887637
0.3160000000000002;-4363350103.0;-4367680664.0;4346062.0;-1.7804083391188166;60.4869032535404;363.3036202567099;454.8063455041517;3583.3333333333335;-3128.526987829182
0.32000000000000023;-4363351282.0;-4367395020.0;4049300.0;-0.29484164529089407;75.08667641985417;310.8664534601554;371.39167345698064;-666.6666666666666;1038.0583401236472
0.32400000000000023;-4363349318.0;-4367021484.0;3670955.0;0.49103076425864106;90.99666149830819;260.21295462102574;196.4681023873838;-833.3333333333334;1029.801435720717
0.32800000000000024;-4363345134.0;-4366724854.0;3374358.0;1.04598678759073;72.36459688814729;251.58181110538425;138.73900583302225;1666.6666666666667;-1527.9276608336445
0.33200000000000024;-4363283600.0;-4366620483.0;3272813.0;15.383569173337825;23.029634407609702;291.8668710276081;3584.3955964367738;-833.3333333333334;4417.728929770107
0.33600000000000024;-4363164452.0;-4366614990.0;3294230.0;29.78706317891519;5.755083949275315;317.21835853418787;3600.873501394341;-6500.0;10100.87350139434
0.34000000000000025;-4362930772.0;-4366598511.0;3361792.0;58.41986739722161;4.046776129893959;339.695576090292;7158.201054576604;-6833.333333333333;13991.534387909938
0.34400000000000025;-4362549842.0;-4366521606.0;3449107.0;95.23252252746872;23.759341741319748;348.41005744991816;9203.163782561776;-3583.3333333333335;12786.49711589511
0.34800000000000025;-4362022124.0;-4366192017.0;3410910.0;131.92960453622726;87.99184253153578;312.30325708992416;9174.270502189636;3416.6666666666665;5757.603835522969
0.35200000000000026;-4361341534.0;-4365510864.0;3168023.0;170.14734148082098;169.5592595966682;244.13759140418261;9554.43423614843;10500.0;-945.5657638515688
0.35600000000000026;-4360457499.0;-4364620972.0;2865600.0;221.00895518752554;215.05716628716885;206.90775183056343;12715.40342667614;16250.0;-3534.59657332386
0.36000000000000026;-4359308924.0;-4363676147.0;2681132.0;287.14351021255425;236.92606236509235;210.55185418539267;16533.638756257176;14916.666666666666;1616.9720895905098
0.36400000000000027;-4357840089.0;-4362495117.0;2487831.0;367.2088791295923;300.28511697400734;185.47891466066216;20016.342229259506;11083.333333333334;8933.008895926174
0.36800000000000027;-4356006596.0;-4360979004.0;2245721.0;458.3731880448009;379.4684535417147;154.62143326677818;22791.07722880215;11333.333333333334;11457.743895468819
0.3720000000000003;-4353770811.0;-4359155273.0;2033530.0;558.9463088239922;459.9817481649667;138.12210198622984;25143.28019479784;15750.0;9393.280194797839
0.3760000000000003;-4351103296.0;-4357012939.0;1882055.0;666.8786613970392;537.2633471447378;141.1286259614934;26983.08814326174;19666.666666666668;7316.421476595071
0.3800000000000003;-4347981789.0;-4354612427.0;1886145.0;780.3766867064015;605.2953815051318;176.92504304152556;28374.506327340583;19000.0;9374.506327340583
0.3840000000000003;-4344387361.0;-4351860352.0;1979056.0;898.6068906733306;692.2300852009505;209.00572969627012;29557.550991732256;19000.0;10557.550991732256
0.3880000000000003;-4340304160.0;-4348580933.0;2005989.0;1020.8001859802625;818.6250081537254;200.53802358658913;30548.323826732998;21416.666666666668;9131.657160066328
0.3920000000000003;-4335720703.0;-4345015869.0;2226373.0;1145.864327214629;894.9014226348177;265.19225325611;31266.035308591596;24166.666666666668;7099.36864192493
0.3960000000000003;-4330629780.0;-4340890503.0;2379688.0;1272.7307583485917;1034.771885828916;263.3483496838646;31716.6077834907;26250.0;5466.607783490701
0.4000000000000003;-4325027015.0;-4336062012.0;2332925.0;1400.6911380636027;1217.679158888422;201.7137282803053;31990.09492875274;30083.333333333332;1906.7615954194075
0.4040000000000003;-4318909308.0;-4330761108.0;2322908.0;1529.4265526085037;1319.4732358123847;226.2476237173796;32183.853636225253;35166.666666666664;-2982.813030441413
0.4080000000000003;-4312273721.0;-4325015259.0;2380992.0;1658.8968293477799;1448.580235834744;230.97794675511136;32367.569184819047;34500.0;-2132.4308151809532
0.4120000000000003;-4305116810.0;-4318511353.0;2197107.0;1789.2274968967358;1633.1739270028509;157.75353029009284;32582.666887238986;34500.0;-1917.333112761014
0.4160000000000003;-4297434509.0;-4311578979.0;2103982.0;1920.5753323584684;1730.2746890104972;181.51987070105224;32836.95886543313;34416.666666666664;-1579.7078012335319
0.4200000000000003;-4289222278.0;-4304179688.0;2066856.0;2053.0575339381944;1862.8724150324651;176.08696605983937;33120.55039493151;34250.0;-1129.449605068487
0.4240000000000003;-4280475249.0;-4296044312.0;1820812.0;2186.757229466926;2027.567038578566;119.56375244852734;33424.92388218295;34916.666666666664;-1491.742784483712
0.4280000000000003;-4271188350.0;-4287766113.0;1963778.0;2321.724474404605;2084.1593311890515;209.6544680687416;33741.81123441974;30000.0;3741.8112344197425
0.43200000000000033;-4261356433.0;-4278773804.0;1929414.0;2457.9792207326773;2246.5505989839116;178.1593815841129;34063.686582018025;31333.333333333332;2730.35324868469
0.43600000000000033;-4250974310.0;-4269418945.0;2074382.0;2595.5305357763946;2340.6490362730865;233.44816436941528;34387.828760929326;29083.333333333332;5304.495427595992
0.44000000000000034;-4240036749.0;-4259360962.0;2063271.0;2734.39012326435;2519.413619167406;190.3781970865307;34714.89687198891;30833.333333333332;3881.5635386555805
0.44400000000000034;-4228538501.0;-4248742676.0;2044106.0;2874.5620076621976;2670.925829097953;175.08857469983832;35042.97109946185;35166.666666666664;-123.6955672048125
0.44800000000000034;-4216474364.0;-4237514648.0;1972688.0;3016.034110399962;2828.9972404631785;149.5332623837844;35368.025684441134;36083.333333333336;-715.3076488921997
0.45200000000000035;-4203839161.0;-4225599976.0;1777345.0;3158.800471665326;2962.1790570227804;138.2782292381753;35691.590316340924;40916.666666666664;-5225.076350325743
0.45600000000000035;-4190627766.0;-4213075562.0;1540171.0;3302.84863818689;3136.934502309717;82.73171750555684;36012.04163039108;38500.0;-2487.9583696089185
0.46000000000000035;-4176835227.0;-4199946899.0;1271816.0;3448.134602964787;3297.7490350338558;39.42209825660257;36321.49119447422;39416.666666666664;-3095.1754721924444
0.46400000000000036;-4162456733.0;-4186307373.0;1070724.0;3594.6233298948778;3402.407102226697;59.99062267569116;36622.18173252267;37666.666666666664;-1044.4849341439876
0.46800000000000036;-4147487620.0;-4172299805.0;1084611.0;3742.278113665485;3512.0409480861517;97.44551727022963;36913.69594265177;33666.666666666664;3247.0292759851063
0.47200000000000036;-4131923548.0;-4157572632.0;966670.0;3891.0178163693995;3658.641611808719;86.46652036085516;37184.92567597866;33500.0;3684.9256759786613
