Zeit[sec];Sollposition[°];Istposition[°];Positionsschleppfehler[°];Sollgeschwindigkeit[°/s];Istgeschwindigkeit[°/s];Geschwindigkeitsdifferenz[°/s];Sollbeschleunigung[°/s*s];Istbeschleunigung[°/s*s];Beschleunigungsdifferenz[°/s*s]
0.0;0.0;5.0;-5.0;-0.0;-0.00021499999999999997;0.0;0.0;0.0;0.0
0.004;0.0;5.0;-5.0;-0.0;-0.00021499999999999997;0.0;0.0;0.0;0.0
0.008;0.0;5.0;-5.0;-0.0;-0.00021499999999999997;0.0;0.0;0.0;0.0
0.012;0.0;5.0;-5.0;-0.0;-0.00021499999999999997;0.0;0.0;0.0;0.0
0.016;0.0;5.0;-5.0;-0.0;-0.00021499999999999997;0.0;0.0;0.0;0.0
0.02;0.0;5.0;-5.0;-0.0;-0.00021499999999999997;0.0;0.0;0.0;0.0
0.024;0.0;5.0;-5.0;-0.0;-0.00021499999999999997;0.0;0.0;0.0;0.0
0.028;0.0;5.0;-5.0;-0.0;-0.00021499999999999997;0.0;0.0;0.0;0.0
0.032;0.0;5.0;-5.0;-0.0;-0.00021499999999999997;0.0;0.0;0.0;0.0
0.036000000000000004;0.0;5.0;-5.0;-0.0;-0.00021499999999999997;0.0;0.0;0.0;0.0
0.04000000000000001;0.0;5.0;-5.0;-0.0;-0.00021499999999999997;0.0;0.0;0.0;0.0
0.04400000000000001;0.0;5.0;-5.0;-0.0;-0.00021499999999999997;0.0;0.0;0.0;0.0
0.048000000000000015;0.0;5.0;-5.0;-0.0;-0.00021499999999999997;0.0;0.0;0.0;0.0
0.05200000000000002;-1316.0;5.0;-5.0;-0.3292491658036973;-0.00021499999999999997;0.0;-82.31229145092432;0.0;-82.31229145092432
0.05600000000000002;-14441.0;5.0;-1321.0;-3.281189480993379;-0.00021499999999999997;-0.38583716580369726;-737.9850787974203;0.0;-737.9850787974203
0.060000000000000026;-78952.0;-1539.0;-12902.0;-16.1277116542131;-0.3860521658036973;-3.4499233151896815;-3211.6305433049306;0.0;-3211.6305433049306
0.06400000000000003;-292153.0;-16882.0;-62070.0;-53.30033065038005;-3.835975480993379;-14.960746173219722;-9293.154749041736;0.0;-9293.154749041736
0.06800000000000003;-832838.0;-92068.0;-200085.0;-135.17106174301045;-18.7967216542131;-43.10726399616695;-20467.6827731576;0.0;-20467.6827731576
0.07200000000000004;-1963154.0;-339683.0;-493155.0;-282.57902136075137;-61.90398565038005;-94.47274109263041;-36851.98990443523;-166.66666666666666;-36685.32323776856
0.07600000000000004;-4003578.0;-965189.0;-997965.0;-510.1059816373674;-156.37672674301047;-169.11478961774088;-56881.740069154;-583.3333333333334;-56298.406735820674
0.08000000000000004;-7300673.0;-2267155.0;-1736423.0;-824.2737475939458;-325.49151636075135;-259.280654276616;-78541.9414891446;-1416.6666666666667;-77125.27482247794
0.08400000000000005;-12210655.0;-4606243.0;-2694430.0;-1227.4954301686664;-584.7721706373674;-355.3620669565785;-100805.42064368015;-2750.0;-98055.42064368015
0.08800000000000005;-19095196.0;-8366779.0;-3843876.0;-1721.1350554355024;-940.1342375939458;-452.64786057472054;-123409.90631670899;-4833.333333333333;-118576.57298337566
0.09200000000000005;-28309957.0;-13937907.0;-5157289.0;-2303.6901475316326;-1392.7820981686664;-550.1163842668361;-145638.77302403256;-7583.333333333333;-138055.43969069922
0.09600000000000006;-40181581.0;-21709500.0;-6600457.0;-2967.9059283800966;-1942.8984824355025;-644.6113160961299;-166053.945212116;-11166.666666666666;-154887.2785454493
0.10000000000000006;-54986513.0;-32059539.0;-8122042.0;-3701.2328195594437;-2587.5097985316324;-729.643935848464;-183331.72279483677;-15416.666666666666;-167915.0561281701
0.10400000000000006;-72938326.0;-45328153.0;-9658360.0;-4487.9531902333065;-3317.1537343800965;-799.3885651793471;-196680.09266846572;-20500.0;-176180.09266846572
0.10800000000000007;-94180892.0;-61794322.0;-11144004.0;-5310.641161035286;-4116.542299559444;-850.603062673863;-205671.9927004949;-26083.333333333332;-179588.65936716157
0.11200000000000007;-118790765.0;-81662903.0;-12517989.0;-6152.467858467397;-4967.1453622333065;-881.7693258019799;-210456.6743580276;-32250.0;-178206.6743580276
0.11600000000000008;-146792125.0;-105058561.0;-13732204.0;-7000.339682067069;-5848.914688035286;-894.03794243211;-211967.95589991802;-38833.333333333336;-173134.6225665847
0.12000000000000008;-178177931.0;-132030371.0;-14761754.0;-7846.451215126125;-6742.952630467396;-892.1424735996725;-211527.88326476412;-45750.0;-165777.88326476412
0.12400000000000008;-212927293.0;-162570751.0;-15607180.0;-8687.340015549178;-7635.095104067069;-882.4648510590569;-210222.20010576324;-52750.0;-157472.20010576324
0.12800000000000009;-251011936.0;-196640990.0;-16286303.0;-9521.160379046612;-8517.559955126126;-870.0910894230528;-208455.09087435858;-59666.666666666664;-148788.42420769192
0.1320000000000001;-292392215.0;-234191594.0;-16820342.0;-10345.069219755182;-9387.651044549179;-856.784040497434;-205977.2101771423;-66500.0;-139477.2101771423
0.1360000000000001;-337008754.0;-275169334.0;-17222881.0;-11154.13426118362;-10244.435085046613;-841.2180177085684;-202266.26035710977;-73250.0;-129016.26035710979
0.1400000000000001;-384771072.0;-319511946.0;-17496808.0;-11940.578806996624;-11085.653102755181;-820.8439024284398;-196611.13645325077;-80000.0;-116611.13645325077
0.1440000000000001;-435543725.0;-367137934.0;-17633138.0;-12693.16268418432;-11906.49700518362;-792.3067358130029;-188145.96929692425;-86583.33333333333;-101562.63596359092
0.1480000000000001;-489137830.0;-417933148.0;-17610577.0;-13398.525590907258;-12698.803740996624;-751.6137541876979;-176340.7266807344;-93000.0;-83340.7266807344
0.1520000000000001;-545311783.0;-471734817.0;-17403013.0;-14043.48763569759;-13450.417495184322;-696.4376547229367;-161240.5111975827;-99083.33333333333;-62157.17786424936
0.1560000000000001;-603776843.0;-528322237.0;-16989546.0;-14616.264237051173;-14146.855149907258;-627.1829637903302;-143194.15033839596;-104916.66666666667;-38277.483671729286
0.16000000000000011;-664207002.0;-587418389.0;-16358454.0;-15107.539239623962;-14774.038113697588;-545.6396453535854;-122818.75064319729;-110333.33333333333;-12485.417309863962
0.16400000000000012;-726256368.0;-648697100.0;-15509902.0;-15512.340760706162;-15319.677759051174;-454.7872665727882;-101200.38027054988;-115166.66666666667;13966.286396116786
0.16800000000000012;-789580798.0;-711794960.0;-14461408.0;-15831.106590071086;-15774.465025623962;-359.71627908220034;-79691.45734123094;-119416.66666666667;39725.20932543573
0.17200000000000013;-853856379.0;-776331685.0;-13249113.0;-16068.894592571927;-16134.181304706162;-266.6371443649223;-59447.00062521042;-123000.0;63552.99937478958
0.17600000000000013;-918794656.0;-841934958.0;-11921421.0;-16234.568372646665;-16400.818449071085;-180.6972465008439;-41418.44501868445;-125833.33333333333;84414.88831464888
0.18000000000000013;-984156543.0;-908261020.0;-10533636.0;-16340.470943773213;-16581.51569557193;-105.99902507473598;-26475.642781636907;-127916.66666666667;101441.02388502976
0.18400000000000014;-1049759423.0;-975011078.0;-9145465.0;-16400.719298041982;-16687.514720646665;-46.211218126547465;-15062.088567192404;-129333.33333333333;114271.24476614092
0.18800000000000014;-1115475187.0;-1041945981.0;-7813442.0;-16428.940164509484;-16733.725938773212;-2.9713652687714784;-7055.216616875441;-130250.0;123194.78338312457
0.19200000000000014;-1181224153.0;-1108892770.0;-6582417.0;-16437.24081106702;-16736.697304041983;24.713208532499266;-2075.161639383623;-130666.66666666667;128591.50502728304
0.19600000000000015;-1246966310.0;-1175740706.0;-5483447.0;-16435.538499759266;-16711.984095509484;38.95506344246678;425.5778269380244;-130583.33333333333;131008.91116027135
0.20000000000000015;-1312689112.0;-1242432822.0;-4533488.0;-16430.699603685393;-16673.029032067017;42.55054830775043;1209.7240184684779;-130250.0;131459.72401846846
0.20400000000000015;-1378394663.0;-1308954735.0;-3734377.0;-16426.386961242097;-16630.478483759267;39.20066907387445;1078.160610823943;-129583.33333333333;130661.49394415726
0.20800000000000016;-1444089918.0;-1375319846.0;-3074817.0;-16423.813132098254;-16591.277814685393;32.67372244329454;643.4572859607215;-128500.0;129143.45728596073
0.21200000000000016;-1509781186.0;-1441554262.0;-2535656.0;-16422.816122510714;-16558.604092242098;25.75775214384339;249.25239688491274;-126916.66666666667;127165.91906355158
0.21600000000000016;-1575472222.0;-1507685647.0;-2095539.0;-16422.75819772926;-16532.846340098255;19.922040587542142;14.481195363259758;-124583.33333333333;124597.81452869659
0.22000000000000017;-1641164430.0;-1573737344.0;-1734878.0;-16423.05116641253;-16512.924299510712;15.56634778145235;-73.24217081713869;-121583.33333333333;121510.09116251618
0.22400000000000017;-1706857811.0;-1639726775.0;-1437655.0;-16423.344612598194;-16497.35795172926;12.48762031672959;-73.36154641598114;-117833.33333333333;117759.97178691735
0.22800000000000017;-1772551858.0;-1705666256.0;-1191555.0;-16423.51091788092;-16484.87033141253;10.288853814337926;-41.57632068199746;-113500.0;113458.423679318
0.23200000000000018;-1838246083.0;-1771564581.0;-987277.0;-16423.555472320004;-16474.581477598193;8.61764871727064;-11.138609770569019;-108416.66666666667;108405.5280568961
0.23600000000000018;-1903940211.0;-1837428436.0;-817647.0;-16423.531319175825;-16465.963828880922;7.249535560917138;6.038286044713459;-102666.66666666667;102672.70495271138
0.24000000000000019;-1969634167.0;-1903263293.0;-676918.0;-16423.488032014895;-16458.714293320005;6.0755001441793866;10.821790232512285;-96333.33333333333;96344.15512356584
0.2440000000000002;-2035327185.0;-1969073848.0;-560319.0;-16423.253762888562;-16452.638793175825;5.057044160930673;58.56728158323676;-89666.66666666667;89725.23394824991
0.2480000000000002;-2101014166.0;-2034864174.0;-463011.0;-16421.744479553625;-16447.581749014895;4.418513126332982;377.32083373430214;-82750.0;83127.3208337343
0.25200000000000017;-2166679497.0;-2100636826.0;-377340.0;-16416.33201627696;-16443.16323588856;5.1931363349358435;1353.1158191663053;-75833.33333333333;77186.44915249964
0.25600000000000017;-2232289454.0;-2166388706.0;-290791.0;-16402.48834814148;-16437.970099553626;9.134070276664715;3460.9170338699187;-68833.33333333333;72294.25036720325
0.2600000000000002;-2297778673.0;-2232104050.0;-185404.0;-16372.304182872425;-16428.83602927696;18.375309135481075;7546.041317263644;-61916.666666666664;69462.7079839303
0.2640000000000002;-2363030282.0;-2297745892.0;-32781.0;-16312.901406627489;-16410.46072014148;36.746954269054186;14850.694061234208;-55000.0;69850.69406123422
0.2680000000000002;-2427860928.0;-2363240747.0;210465.0;-16207.660771154202;-16373.713765872426;69.8623542449368;26310.15886832165;-48166.666666666664;74476.82553498831
0.2720000000000002;-2492015517.0;-2428456152.0;595224.0;-16038.64630255577;-16303.85141162749;121.78527247328748;42253.61714960809;-41333.333333333336;83586.95048294142
0.2760000000000002;-2555166901.0;-2493184416.0;1168899.0;-15787.84534746152;-16182.066139154202;193.6824935984314;62700.238773562436;-34250.0;96950.23877356244
0.2800000000000002;-2616921973.0;-2557137950.0;1971049.0;-15438.767257188656;-15988.38364555577;285.2934050942513;87269.52256821597;-27166.666666666668;114436.18923488262
0.2840000000000002;-2676836413.0;-2619950310.0;3028337.0;-14978.609334558423;-15703.090240461519;394.5414742728626;115039.48065755822;-19666.666666666668;134706.14732422488
0.2880000000000002;-2734432765.0;-2681184505.0;4348092.0;-14399.087257931516;-15308.548766188656;516.9073876302336;144880.5191567267;-12083.333333333334;156963.85249006
0.2920000000000002;-2789218549.0;-2740351070.0;5918305.0;-13696.44540906362;-14791.641378558423;647.0412356269062;175660.4622169739;-4083.3333333333335;179743.79555030723
0.2960000000000002;-2840708684.0;-2796929470.0;7710921.0;-12872.53315530693;-14144.600142931517;779.7243368678955;205978.06343917272;4166.666666666667;201811.39677250606
0.3000000000000002;-2888451447.0;-2850388973.0;9680289.0;-11935.690218935342;-13364.875806063621;908.5950777566904;234210.73409289692;12833.333333333334;221377.4007595636
0.3040000000000002;-2932049788.0;-2900214095.0;11762648.0;-10899.584732207322;-12456.28072830693;1026.3843733715876;259026.371682005;21750.0;237276.371682005
0.3080000000000002;-2971180185.0;-2945933680.0;13883892.0;-9782.59874978086;-11429.896354935343;1127.3189787280207;279246.49560661556;30916.666666666668;248329.82893994887
0.3120000000000002;-3005613152.0;-2987143989.0;15963804.0;-8608.241232309567;-10302.577376207322;1206.4221984264623;293589.3793678233;40333.333333333336;253256.04603449
0.3160000000000002;-3035228629.0;-3023528609.0;17915457.0;-7403.868889915364;-9096.15517778086;1258.278596471293;301093.08559855074;49916.666666666664;251176.41893188405
0.32000000000000023;-3060031496.0;-3054880115.0;19651486.0;-6200.7164363853735;-7837.876581309567;1279.0215893942031;300788.1133824976;59666.666666666664;241121.44671583094
0.32400000000000023;-3080174195.0;-3081115534.0;21084038.0;-5035.674654040208;-6558.854991915364;1264.7521895299906;291260.4455862913;69500.0;221760.44558629132
0.32800000000000024;-3095965965.0;-3102291945.0;22117750.0;-3947.9422494425944;-5294.102802385373;1209.4913983451652;271933.10114940343;79250.0;192683.10114940346
0.33200000000000024;-3107851028.0;-3118630390.0;22664425.0;-2971.2655453017987;-4084.611404040208;1111.2394295976137;244169.1760351989;88750.0;155419.1760351989
0.33600000000000024;-3116367547.0;-3130523877.0;22672849.0;-2129.129618068836;-2973.3719744425944;977.0389361407956;210533.9818082407;97750.0;112783.9818082407
0.34000000000000025;-3122104123.0;-3138509209.0;22141662.0;-1434.1439846113672;-1996.3330383017988;819.2948862329627;173746.4083643672;106083.33333333333;67663.07503103386
0.34400000000000025;-3125658514.0;-3143217361.0;21113238.0;-888.5976504684571;-1177.038152068836;650.7634014574688;136386.58353572752;113416.66666666667;22969.91686906084
0.34800000000000025;-3127602850.0;-3145322460.0;19663946.0;-486.08412993174164;-526.2747506113673;483.22677814291;100628.38013417886;119500.0;-18871.619865821132
0.35200000000000026;-3128459877.0;-3145494651.0;17891801.0;-214.2567680067459;-43.04797246845726;326.3112855367155;67956.84048124895;124500.0;-56543.15951875106
0.35600000000000026;-3128679058.0;-3144361598.0;15901721.0;-54.79520863398321;283.26331306825824;186.25392192499572;39865.38984319067;128166.66666666667;-88301.276823476
0.36000000000000026;-3128604374.0;-3142483530.0;13804472.0;18.671051613819426;469.51723499325396;69.27985237276278;18366.56506195066;130666.66666666667;-112300.10160471601
0.36400000000000027;-3128454197.0;-3140328342.0;11723968.0;37.5443626037405;538.7970873660167;-15.995411752197356;4718.327747480269;132083.33333333334;-127365.00558585307
0.36800000000000027;-3128333371.0;-3138237136.0;9782939.0;30.20632501302074;522.8016756138194;-64.5909360100789;-1834.5093976799403;132583.33333333334;-134417.84273101328
0.3720000000000003;-3128269159.0;-3136404294.0;8070923.0;16.05307709895576;458.2107396037405;-80.95472559071982;-3538.3119785162453;132583.33333333334;-136121.6453118496
0.3760000000000003;-3128250214.0;-3134895270.0;6626111.0;4.73622594059413;377.25601401302066;-76.28016391406493;-2829.2127895904077;132083.33333333334;-134912.54612292376
0.3800000000000003;-3128254985.0;-3133691367.0;5441153.0;-1.1928223263726865;300.97585009895573;-62.270045158361626;-1482.262066741704;131500.0;-132982.2620667417
0.3840000000000003;-3128266270.0;-3132736544.0;4481559.0;-2.8211185814329727;238.7058049405941;-47.19159026696681;-407.07406376507157;130833.33333333333;-131240.4073970984
0.3880000000000003;-3128275132.0;-3131970488.0;3704218.0;-2.215479994851703;191.5142146736273;-35.053959255060306;151.40964664531742;130250.0;-130098.59035335468
0.3920000000000003;-3128279243.0;-3131344647.0;3069515.0;-1.02783944871506;156.460255418567;-26.686590413418713;296.91013653416076;129833.33333333333;-129536.42319679917
0.3960000000000003;-3128279693.0;-3130825553.0;2546310.0;-0.11260738461872256;129.77366500514827;-21.31017445386334;228.80801602408434;129416.66666666667;-129187.85865064259
0.4000000000000003;-3128278433.0;-3130391700.0;2112007.0;0.31512781819619784;108.46349055128493;-17.759796935903665;106.9338007037301;128916.66666666667;-128809.73286596294
0.4040000000000003;-3128276954.0;-3130028886.0;1750453.0;0.36978532435750905;90.70369361538127;-15.119086797185076;13.664376540327803;128083.33333333333;-128069.668956793
0.4080000000000003;-3128275974.0;-3129726548.0;1449594.0;0.2450439073520497;75.58460681819619;-12.882279493838695;-31.18535425136484;126916.66666666667;-126947.85202091804
0.4120000000000003;-3128275632.0;-3129475739.0;1199765.0;0.08544440691806508;62.7023273243575;-10.867388417005458;-39.899875108496154;125250.0;-125289.8998751085
0.4160000000000003;-3128275792.0;-3129268400.0;992768.0;-0.04002662590137013;51.83493890735204;-9.06047050043398;-31.367758204858802;122916.66666666667;-122948.03442487153
0.4200000000000003;-3128276241.0;-3129097303.0;821511.0;-0.11237974267591534;42.77446840691806;-7.489522032819437;-18.088279193636303;119666.66666666667;-119684.7549458603
0.4240000000000003;-3128276771.0;-3128956164.0;679923.0;-0.132310456787435;35.284946374098624;-6.160637116774545;-4.982678527879914;115583.33333333333;-115588.31601186121
0.4280000000000003;-3128277202.0;-3128839667.0;562896.0;-0.10782497333854874;29.12430925732408;-5.052091714111519;6.121370862221566;110416.66666666667;-110410.54529580445
0.43200000000000033;-3128277420.0;-3128743379.0;466177.0;-0.054476806800847516;24.07221754321256;-4.1344315165511105;13.337041634425304;104333.33333333333;-104319.9962916989
0.43600000000000033;-3128277394.0;-3128663628.0;386208.0;0.00651909318178368;19.93778602666145;-3.3853188334622963;15.248974995657798;97166.66666666667;-97151.41769167101
0.44000000000000034;-3128277171.0;-3128597419.0;320025.0;0.0558145773062074;16.552467193199153;-2.7848731000173714;12.323871031105929;89166.66666666667;-89154.34279563556
0.44400000000000034;-3128276841.0;-3128542349.0;265178.0;0.08251617857624009;13.767594093181781;-2.309125515875575;6.675400317508174;80416.66666666667;-80409.99126634917
0.44800000000000034;-3128276498.0;-3128496516.0;219675.0;0.08559572582686938;11.458468577306206;-1.9299273987299674;0.7698868126573208;71000.0;-70999.23011318734
0.45200000000000035;-3128276213.0;-3128458402.0;181904.0;0.07133641992129133;9.528541178576239;-1.6210734527493704;-3.5648264763945106;61333.333333333336;-61336.89815980973
0.45600000000000035;-3128276016.0;-3128426773.0;150560.0;0.04922568271417219;7.907467725826868;-1.3620513059055783;-5.527684301779785;51333.333333333336;-51338.861017635114
0.46000000000000035;-3128275905.0;-3128400592.0;124576.0;0.02779555194723088;6.54541641992129;-1.1394227372071182;-5.3575326917353285;41583.333333333336;-41588.69086602507
0.46400000000000036;-3128275857.0;-3128378969.0;103064.0;0.01195983499946187;5.405993682714172;-0.9464461307669412;-3.9589292369422524;32083.333333333332;-32087.292262570274
0.46800000000000036;-3128275846.0;-3128361131.0;85274.0;0.002788372675791372;4.459547551947231;-0.7808057169477691;-2.2928655809176246;23583.333333333332;-23585.62619891425
0.47200000000000036;-3128275850.0;-3128346417.0;70571.0;-0.0010840440574775088;3.6787418349994616;-0.6414004623236704;-0.9681041833172201;16000.0;-16000.968104183317
0.47600000000000037;-3128275857.0;-3128334268.0;58418.0;-0.0018077709211963494;3.037341372675791;-0.526451416733269;-0.18093171592971016;9666.666666666666;-9666.847598382596
0.48000000000000037;-3128275862.0;-3128324225.0;48368.0;-0.001222057545449727;2.510889955942522;-0.43287372686371883;0.14642834393665563;4583.333333333333;-4583.186904989397
0.4840000000000004;-3128275864.0;-3128315913.0;40051.0;-0.00044642048690229956;2.0780162290788033;-0.3570452866242533;0.19390926463685684;750.0;-749.8060907353631
0.4880000000000004;-3128275864.0;-3128309030.0;33166.0;5.847820883226584e-05;1.72097094245455;-0.2952793629414525;0.12622467393364134;-1833.3333333333333;1833.4595580072669
0.4920000000000004;-3128275863.0;-3128303328.0;27464.0;0.0002416631167275348;1.4256915795130976;-0.24468110130426557;0.04579622697381724;-3416.6666666666665;3416.7124628936403
0.4960000000000004;-3128275862.0;-3128298604.0;22741.0;0.0002197197811710275;1.181010478208832;-0.20290581509210448;-0.005485833889126823;-4000.0;3999.994514166111
