Zeit[sec];Sollposition[°];Istposition[°];Positionsschleppfehler[°];Sollgeschwindigkeit[°/s];Istgeschwindigkeit[°/s];Geschwindigkeitsdifferenz[°/s];Sollbeschleunigung[°/s*s];Istbeschleunigung[°/s*s];Beschleunigungsdifferenz[°/s*s]
0.0;9817499999.0;9817500002.0;-3.0;0.0;-0.00017999999999999998;0.0;0.0;0.0;0.0
0.004;9817499999.0;9817500002.0;-3.0;0.0;-0.00017999999999999998;0.0;0.0;0.0;0.0
0.008;9817499999.0;9817500002.0;-3.0;0.0;-0.00017999999999999998;0.0;0.0;0.0;0.0
0.012;9817499999.0;9817500002.0;-3.0;0.0;-0.00017999999999999998;0.0;0.0;0.0;0.0
0.016;9817499999.0;9817500002.0;-3.0;0.0;-0.00017999999999999998;0.0;0.0;0.0;0.0
0.02;9817499999.0;9817500002.0;-3.0;0.0;-0.00017999999999999998;0.0;0.0;0.0;0.0
0.024;9817499999.0;9817500002.0;-3.0;0.0;-0.00017999999999999998;0.0;0.0;0.0;0.0
0.028;9817499999.0;9817500002.0;-3.0;0.0;-0.00017999999999999998;0.0;0.0;0.0;0.0
0.032;9817499999.0;9817500002.0;-3.0;0.0;-0.00017999999999999998;0.0;0.0;0.0;0.0
0.036000000000000004;9817499999.0;9817500002.0;-3.0;0.0;-0.00017999999999999998;0.0;0.0;0.0;0.0
0.04000000000000001;9817499999.0;9817500002.0;-3.0;0.0;-0.00017999999999999998;0.0;0.0;0.0;0.0
0.04400000000000001;9817499999.0;9817500002.0;-3.0;0.0;-0.00017999999999999998;0.0;0.0;0.0;0.0
0.048000000000000015;9817499999.0;9817500002.0;-3.0;0.0;-0.00017999999999999998;0.0;0.0;0.0;0.0
0.05200000000000002;9817500113.0;9817500002.0;-3.0;0.02829035140189809;-0.00017999999999999998;0.0;7.072587850474522;0.0;7.072587850474522
0.05600000000000002;9817501240.0;9817500002.0;111.0;0.28193238832846407;-0.00017999999999999998;0.03513035140189809;63.41050923164149;0.0;63.41050923164149
0.060000000000000026;9817626756.0;9817500141.0;1099.0;31.378905530051114;0.03495035140189809;0.31292203692656595;7774.243285430663;0.0;7774.243285430663
0.06400000000000003;9817815427.0;9817501532.0;125224.0;47.16772043728544;0.34787238832846407;38.544473141722655;3947.2037268085815;0.0;3947.2037268085815
0.06800000000000003;9818125032.0;9817657101.0;158326.0;77.401264892128;38.89234553005112;17.774934907234325;7558.38611371064;83.33333333333333;7475.052780377307
0.07200000000000004;9818550082.0;9817883770.0;241262.0;106.26259131244868;56.66728043728544;35.20970445484255;7215.3316050801695;166.66666666666666;7048.6649384135035
0.07600000000000004;9819078063.0;9818251277.0;298805.0;131.99508546808968;91.876984892128;32.31390642032069;6433.123538910251;416.6666666666667;6016.456872243585
0.08000000000000004;9819721421.0;9818748040.0;330023.0;160.83963546316286;124.19089131244868;27.605574155640994;7211.137498768295;666.6666666666666;6544.470832101629
0.08400000000000005;9820509407.0;9819355225.0;366196.0;196.99631447522222;151.79646546808968;31.014929995073174;9039.16975301484;1000.0;8039.169753014839
0.08800000000000005;9821453279.0;9820086470.0;422937.0;235.96819763554475;182.81139546316285;39.56113901205936;9742.970790080633;1250.0;8492.970790080633
0.09200000000000005;9822533982.0;9820975960.0;477319.0;270.17551683813116;222.3725344752222;42.23480316032254;8551.829800646601;1500.0;7051.829800646601
0.09600000000000006;9823740022.0;9822034389.0;499593.0;301.5101338789905;264.60733763554475;35.543759202586386;7833.654260214828;1750.0;6083.654260214828
0.10000000000000006;9825072425.0;9823234993.0;505029.0;333.1006235463536;300.15109683813114;31.66077704085933;7897.622416840775;2000.0;5897.622416840775
0.10400000000000006;9826517115.0;9824562240.0;510185.0;361.1725510639322;331.81187387899047;31.899849667363128;7017.981879394654;2333.3333333333335;4684.64854606132
0.10800000000000007;9828065307.0;9826017086.0;500029.0;387.04790287026435;363.7117235463536;27.462567517578577;6468.83795158304;2583.3333333333335;3885.504618249707
0.11200000000000007;9829730547.0;9827581783.0;483524.0;416.3099474361849;391.1742910639322;24.88505180633217;7315.511141480144;2833.3333333333335;4482.17780814681
0.11600000000000008;9831531072.0;9829246020.0;484527.0;450.1312782222206;416.05934287026435;29.32222456592058;8455.332696508918;3000.0;5455.332696508918
0.12000000000000008;9833472989.0;9831027546.0;503526.0;485.47926085379123;445.3815674361849;34.9612707860357;8836.995657892658;3250.0;5586.995657892658
0.12400000000000008;9835553791.0;9832948917.0;524072.0;520.2005060969245;480.3428382222206;36.580742631570615;8680.311310783323;3500.0;5180.311310783324
0.12800000000000009;9837770824.0;9835016611.0;537180.0;554.2583078341461;516.9235808537912;35.507725243133336;8514.450434305389;3750.0;4764.450434305389
0.1320000000000001;9840109947.0;9837226336.0;544488.0;584.7806707371003;552.4313060969246;34.496281737221466;7630.590725738557;4083.3333333333335;3547.2573924052235
0.1360000000000001;9842549683.0;9839574046.0;535901.0;609.9339637555585;586.927587834146;30.00714290295423;6288.323254614539;4333.333333333333;1954.9899212812063
0.1400000000000001;9845078090.0;9842041784.0;507899.0;632.101698942365;616.9347307371003;23.47317301845817;5541.933796701642;4583.333333333333;958.6004633683087
0.1440000000000001;9847682410.0;9844603415.0;474675.0;651.0799205878036;640.4079037555584;20.174295186806603;4744.555411359642;4750.0;-5.444588640358461
0.1480000000000001;9850339478.0;9847245743.0;436667.0;664.2670163937271;660.582198942365;16.697741645438555;3296.7739514808727;5000.0;-1703.2260485191273
0.1520000000000001;9853023987.0;9849954862.0;384616.0;671.1272256743551;677.2799405878036;10.064035805923481;1715.0523201570138;5166.666666666667;-3451.614346509653
0.1560000000000001;9855716661.0;9852704237.0;319750.0;673.1685323399399;687.3439763937271;2.968249280628015;510.32666639619606;5333.333333333333;-4823.006666937137
0.16000000000000011;9858406991.0;9855465485.0;251176.0;672.5823201778763;690.3122256743551;-2.073133334415161;-146.55304051589724;5333.333333333333;-5479.88637384923
0.16400000000000012;9861091678.0;9858218441.0;188550.0;671.1717048446937;688.2390923399399;-4.343772162063601;-352.6538332956477;5416.666666666667;-5769.320499962315
0.16800000000000012;9863771499.0;9860954022.0;137656.0;669.9552700337807;683.8953201778763;-4.464255333182564;-304.1087027282572;5333.333333333333;-5637.44203606159
0.17200000000000013;9866448561.0;9863671746.0;99753.0;669.265420795692;679.4310648446938;-3.49061481091303;-172.46230952218866;5333.333333333333;-5505.795642855522
0.17600000000000013;9869124707.0;9866375507.0;73054.0;669.0366594522369;675.9404500337807;-2.291789238088768;-57.19033586376554;5250.0;-5307.1903358637655
0.18000000000000013;9871800987.0;9869070101.0;54606.0;669.0697610399429;673.648660795692;-1.3356413434551087;8.275396926507028;5250.0;-5241.724603073493
0.18400000000000014;9874477739.0;9871759353.0;41634.0;669.1879493317219;672.3130194522369;-0.7452184122939798;29.547072944751562;5250.0;-5220.452927055248
0.18800000000000014;9877154901.0;9874445624.0;32115.0;669.2905740322879;671.5678010399429;-0.45295170822089403;25.65617514147789;5250.0;-5224.343824858523
0.19200000000000014;9879832282.0;9877130083.0;24818.0;669.3453135840365;671.114849331722;-0.33519529943419;13.684887937159829;5250.0;-5236.31511206284
0.19600000000000015;9882509718.0;9879813201.0;19081.0;669.3588756822005;670.7796540322878;-0.2894804482513109;3.3905245410039697;5166.666666666667;-5163.276142125663
0.20000000000000015;9885187120.0;9882495161.0;14557.0;669.3504340569244;670.4901735840365;-0.25787790183596826;-2.1104063190193756;5000.0;-5002.11040631902
0.20400000000000015;9887864466.0;9885176090.0;11030.0;669.3364005291021;670.2322956822005;-0.2200616252761165;-3.5083819555836726;4750.0;-4753.508381955584
0.20800000000000016;9890541768.0;9887856138.0;8328.0;669.3255651617128;670.0122340569244;-0.17615352782229365;-2.708841847322674;4500.0;-4502.708841847323
0.21200000000000016;9893219049.0;9890535482.0;6286.0;669.320203084943;669.8360805291021;-0.13335536738929932;-1.3405191924391602;4333.333333333333;-4334.673852525772
0.21600000000000016;9895896325.0;9893214292.0;4757.0;669.31908999862;669.7027251617128;-0.0971020767697155;-0.27827158075410807;4083.3333333333335;-4083.6116049140874
0.22000000000000017;9898573606.0;9895892714.0;3611.0;669.3200816420361;669.6056230849431;-0.06987308632301392;0.2479108540285324;3833.3333333333335;-3833.0854224793047
0.22400000000000017;9901250892.0;9898570856.0;2750.0;669.3215039209441;669.5357499986201;-0.0506683565839694;0.3555697269916891;3416.6666666666665;-3416.311096939675
0.22800000000000017;9903928182.0;9901248796.0;2096.0;669.3225234636976;669.4850816420361;-0.037817721091983;0.2548856883777262;3166.6666666666665;-3166.411780978289
0.23200000000000018;9906605474.0;9903926585.0;1597.0;669.3229667757262;669.4472639209441;-0.02892045724649961;0.11082800713779761;2916.6666666666665;-2916.5558386595285
0.23600000000000018;9909282766.0;9906604258.0;1216.0;669.322990497714;669.4183434636976;-0.02241668797148577;0.005930496968176158;2666.6666666666665;-2666.6607361696983
0.24000000000000019;9911960058.0;9909281841.0;925.0;669.322821312206;669.3959267757261;-0.01743627801204184;-0.042296377017692066;2416.6666666666665;-2416.708963043684
0.2440000000000002;9914637348.0;9911959354.0;704.0;669.3226251774546;669.3784904977141;-0.013429185508130104;-0.049033687844257656;2166.6666666666665;-2166.715700354511
0.2480000000000002;9917314638.0;9914636814.0;534.0;669.3224791013548;669.365061312206;-0.010396134751317732;-0.03651902494539172;2000.0;-2000.0365190249454
0.25200000000000017;9919991928.0;9917314232.0;406.0;669.3223946936805;669.3546651774546;-0.00782607609983188;-0.021101918576960088;1750.0;-1750.021101918577
0.25600000000000017;9922669218.0;9919991619.0;309.0;669.3223530899328;669.3468391013548;-0.005904407674279355;-0.010400936929499949;1416.6666666666667;-1416.6770676035962
0.2600000000000002;9925346507.0;9922668982.0;236.0;669.3223307094886;669.3409346936805;-0.004421603747800873;-0.005595111048251056;1166.6666666666667;-1166.672261777715
0.2640000000000002;9928023796.0;9925346328.0;179.0;669.322311354472;669.3365130899327;-0.003442380444084847;-0.004838754136926582;916.6666666666666;-916.6715054208036
0.2680000000000002;9930701086.0;9928023660.0;136.0;669.3222881022799;669.3330707094887;-0.002599355016627669;-0.005813048034042367;666.6666666666666;-666.6724797147007
0.2720000000000002;9933378375.0;9930700981.0;105.0;669.3222604342917;669.330471354472;-0.0018832521921012813;-0.0069169970515758905;416.6666666666667;-416.67358366371826
0.2760000000000002;9936055664.0;9933378295.0;80.0;669.3222305955918;669.3285881022799;-0.0015276679881708333;-0.007459674975507369;166.66666666666666;-166.67412634164216
0.2800000000000002;9938732953.0;9936055603.0;61.0;669.3222010543819;669.3270604342918;-0.001169838699979664;-0.007385302467355359;83.33333333333333;-83.34071863580068
0.2840000000000002;9941410242.0;9938732906.0;47.0;669.322173425851;669.3258905955918;-0.0008695412097949884;-0.00690713272888388;0.0;-0.00690713272888388
0.2880000000000002;9944087530.0;9941410206.0;36.0;669.3221483540875;669.325021054382;-0.0006876285309544983;-0.006267940875659406;-83.33333333333333;83.32706539245767
0.2920000000000002;9946764819.0;9944087503.0;27.0;669.3221258618005;669.324333425851;-0.0005650717635035107;-0.005623071757554499;-166.66666666666666;166.6610435949091
0.2960000000000002;9949442108.0;9946764798.0;21.0;669.3221057343887;669.3237683540875;-0.00038249228703080007;-0.0050318529360993125;-166.66666666666666;166.66163481373056
0.3000000000000002;9952119396.0;9949442091.0;17.0;669.322087747599;669.3233858618005;-0.0002601274117068897;-0.004496697442846198;-83.33333333333333;83.32883663589048
0.3040000000000002;9954796684.0;9952119383.0;13.0;669.3220717734088;669.3231257343888;-0.00025798678984756407;-0.003993547551317533;-83.33333333333333;83.32933978578201
0.3080000000000002;9957473973.0;9954796674.0;10.0;669.3220577950696;669.3228677475989;-0.00019597419020556117;-0.0034945848028655746;-83.33333333333333;83.32983874853046
0.3120000000000002;9960151261.0;9957473964.0;9.0;669.3220458432389;669.3226717734087;-7.39783391736637e-05;-0.002987957657296647;-83.33333333333333;83.33034537567603
0.3160000000000002;9962828549.0;9960151254.0;7.0;669.3220359701481;669.3225977950696;-0.00013195183066727623;-0.0024682726973423996;0.0;-0.0024682726973423996
0.32000000000000023;9965505838.0;9962828543.0;6.0;669.3220282348407;669.3224658432389;-6.9873090751571e-05;-0.001933826865752053;0.0;-0.001933826865752053
0.32400000000000023;9968183126.0;9965505832.0;6.0;669.3220226753546;669.3223959701481;-7.735307463008212e-06;-0.0013898715280902252;0.0;-0.0013898715280902252
0.32800000000000024;9970860414.0;9968183121.0;5.0;669.3220193203601;669.3223882348407;-6.55594860745623e-05;-0.0008387486047922721;0.0;-0.0008387486047922721
0.33200000000000024;9973537702.0;9970860410.0;4.0;669.3220181965407;669.3223226753546;-6.335499449505733e-05;-0.0002809548504956183;0.0;-0.0002809548504956183
0.33600000000000024;9976214990.0;9973537699.0;3.0;669.3220193308631;669.3222593203601;-6.112381936418387e-05;0.0002835805901213462;0.0;0.0002835805901213462
0.34000000000000025;9978892279.0;9976214987.0;3.0;669.3220227400757;669.3221981965407;1.1343223604853847e-06;0.0008523031453933072;0.0;0.0008523031453933072
0.34400000000000025;9981569567.0;9978892275.0;4.0;669.3220284508616;669.3221993308631;6.340921254377463e-05;0.00142769647482055;0.0;0.00142769647482055
0.34800000000000025;9984246855.0;9981569564.0;3.0;669.3220364853621;669.3222627400756;-5.42892140629192e-05;0.00200862513111133;0.0;0.00200862513111133
0.35200000000000026;9986924144.0;9984246852.0;3.0;669.3220468699768;669.3222084508616;8.03450052444532e-06;0.0025961536778140726;0.0;0.0025961536778140726
0.35600000000000026;9989601432.0;9986924140.0;4.0;669.322059629402;669.3222164853621;7.038461467345769e-05;0.003189856300878091;0.0;0.003189856300878091
0.36000000000000026;9992278720.0;9989601429.0;3.0;669.3220747820885;669.3222868699768;-4.7240574758689036e-05;0.003788171625274117;0.0;0.003788171625274117
0.36400000000000027;9994956009.0;9992278717.0;3.0;669.3220923589778;669.322239629402;1.5152686501096468e-05;0.0043942223157955596;0.0;0.0043942223157955596
0.36800000000000027;9997633297.0;9994956006.0;3.0;669.3221123779533;669.3222547820885;1.7576889263182238e-05;0.005004743883318952;0.0;0.005004743883318952
0.3720000000000003;10000310586.0;9997633295.0;2.0;669.3221348586017;669.3222723589778;-3.998102442892559e-05;0.005620162085051561;0.0;0.005620162085051561
0.3760000000000003;10002987875.0;10000310583.0;3.0;669.3221598295934;669.3222323779534;8.248064830240764e-05;0.0062427479292637145;0.0;0.0062427479292637145
0.3800000000000003;10005665164.0;10002987872.0;3.0;669.3221873056892;669.3223148586017;2.4970991717054858e-05;0.006869023962963183;0.0;0.006869023962963183
0.3840000000000003;10008342453.0;10005665161.0;3.0;669.3222173115853;669.3223398295934;2.7476095851852733e-05;0.007501474016180509;0.0;0.007501474016180509
0.3880000000000003;10011019742.0;10008342450.0;3.0;669.3222498680038;669.3223673056892;3.0005896064722037e-05;0.008139104636484262;0.0;0.008139104636484262
0.3920000000000003;10013697031.0;10011019739.0;3.0;669.3222849908412;669.3223973115853;3.255641854593705e-05;0.008780709350730831;0.0;0.008780709350730831
0.3960000000000003;10016374321.0;10013697028.0;3.0;669.3223227039422;669.3224298680038;3.5122837402923324e-05;0.009428275234313332;0.0;0.009428275234313332
0.4000000000000003;10019051610.0;10016374317.0;4.0;669.3223630254739;669.3224649908412;9.771310089945473e-05;0.010080382935484522;0.0;0.010080382935484522
0.4040000000000003;10021728900.0;10019051607.0;3.0;669.3224059738877;669.3225627039421;-1.9678468220263312e-05;0.010737103451674557;0.0;0.010737103451674557
0.4080000000000003;10024406190.0;10021728897.0;3.0;669.3224515682024;669.3225430254739;4.294841380669823e-05;0.011398578664056913;0.0;0.011398578664056913
0.4120000000000003;10027083480.0;10024406187.0;3.0;669.3224998254498;669.3225859738877;4.559431465622765e-05;0.012064311846415876;0.0;0.012064311846415876
0.4160000000000003;10029760770.0;10027083477.0;3.0;669.322550764649;669.3226315682024;4.8257247385663504e-05;0.012734799810232289;0.0;0.012734799810232289
0.4200000000000003;10032438061.0;10029760767.0;3.0;669.3226044008447;669.3226798254498;5.0939199240929156e-05;0.013409048932544465;0.0;0.013409048932544465
0.4240000000000003;10035115352.0;10032438057.0;4.0;669.3226607544752;669.322730764649;0.00011363619569237926;0.01408840762451291;0.0;0.01408840762451291
0.4280000000000003;10037792643.0;10035115348.0;4.0;669.3227198385983;669.3228444008447;5.635363049805164e-05;0.014771030777183114;0.0;0.014771030777183114
0.43200000000000033;10040469934.0;10037792639.0;4.0;669.322781669962;669.3229007544752;5.9084123108732456e-05;0.015457840902399766;0.0;0.015457840902399766
0.43600000000000033;10043147225.0;10040469930.0;4.0;669.322846265598;669.3229598385983;6.183136360959907e-05;0.016148908997593026;0.0;0.016148908997593026
0.44000000000000034;10045824517.0;10043147222.0;3.0;669.3229136402674;669.3230216699619;4.595636028170702e-06;0.01684366736753873;0.0;0.01684366736753873
0.44400000000000034;10048501809.0;10045824514.0;3.0;669.3229838075956;669.323026265598;6.737466947015491e-05;0.017541832050937956;0.0;0.017541832050937956
0.44800000000000034;10051179102.0;10048501806.0;3.0;669.3230567803568;669.3230936402674;7.016732820375182e-05;0.01824319028287391;0.0;0.01824319028287391
0.45200000000000035;10053856394.0;10051179098.0;4.0;669.3231325784211;669.3231638075956;0.00013297276109369704;0.018949516089605822;0.0;0.018949516089605822
0.45600000000000035;10056533687.0;10053856391.0;3.0;669.3232112103046;669.3232967803567;1.579806439622189e-05;0.019657970881326037;0.0;0.019657970881326037
0.46000000000000035;10059210980.0;10056533684.0;3.0;669.3232926896329;669.3233125784211;7.863188352530415e-05;0.020369832071764904;0.0;0.020369832071764904
0.46400000000000036;10061888274.0;10059210977.0;3.0;669.3233770325862;669.3233912103046;8.147932828705962e-05;0.021085738325155035;0.0;0.021085738325155035
0.46800000000000036;10064565568.0;10061888270.0;4.0;669.3234642490997;669.3234726896329;0.00014434295326282154;0.021804128380153998;0.0;0.021804128380153998
0.47200000000000036;10067242862.0;10064565564.0;4.0;669.3235543485409;669.3236170325862;8.721651352061599e-05;0.022524860298744898;0.0;0.022524860298744898
0.47600000000000037;10069920157.0;10067242858.0;4.0;669.3236473504967;669.3237042490997;9.009944119497959e-05;0.023250488936810143;0.0;0.023250488936810143
0.48000000000000037;10072597452.0;10069920153.0;4.0;669.3237432563861;669.3237943485409;9.300195574724057e-05;0.023976472363074208;0.0;0.023976472363074208
0.4840000000000004;10075274748.0;10072597448.0;4.0;669.3238420857961;669.3238873504966;9.590588945229683e-05;0.02470735248039091;0.0;0.02470735248039091
0.4880000000000004;10077952044.0;10075274743.0;5.0;669.3239438438359;669.3239832563861;0.00015882940999745188;0.02543950995459454;0.0;0.02543950995459454
0.4920000000000004;10080629340.0;10077952039.0;5.0;669.324048540441;669.3241420857961;0.00010175803981837817;0.026174151287250425;0.0;0.026174151287250425
0.4960000000000004;10083306637.0;10080629335.0;5.0;669.3241561906561;669.3242438438359;0.0001046966051490017;0.02691255377840207;0.0;0.02691255377840207
0.5000000000000003;10085983934.0;10083306632.0;5.0;669.3242668010101;669.3243485404411;0.00010765021511360828;0.027652588499904596;0.0;0.027652588499904596
0.5040000000000003;10088661232.0;10085983929.0;5.0;669.3243803777482;669.3244561906562;0.00011061035399961838;0.02839418451117126;0.0;0.02839418451117126
0.5080000000000003;10091338530.0;10088661227.0;5.0;669.3244969316569;669.3245668010102;0.00011357673804468504;0.029138477174228683;0.0;0.029138477174228683
0.5120000000000003;10094015828.0;10091338525.0;5.0;669.3246164732394;669.3246803777482;0.00011655390869691473;0.029885395633755252;0.0;0.029885395633755252
0.5160000000000003;10096693127.0;10094015824.0;4.0;669.324739008173;669.3247969316569;5.954158245913277e-05;0.030633733388185647;0.0;0.030633733388185647
