Zeit[sec];Sollposition[°];Istposition[°];Positionsschleppfehler[°];Sollgeschwindigkeit[°/s];Istgeschwindigkeit[°/s];Geschwindigkeitsdifferenz[°/s];Sollbeschleunigung[°/s*s];Istbeschleunigung[°/s*s];Beschleunigungsdifferenz[°/s*s]
0.0;0.0;-4.0;4.0;0.0;0.00023999999999999998;0.0;0.0;0.0;0.0
0.004;0.0;-4.0;4.0;0.0;0.00023999999999999998;0.0;0.0;0.0;0.0
0.008;0.0;-4.0;4.0;0.0;0.00023999999999999998;0.0;0.0;0.0;0.0
0.012;0.0;-4.0;4.0;0.0;0.00023999999999999998;0.0;0.0;0.0;0.0
0.016;0.0;-4.0;4.0;0.0;0.00023999999999999998;0.0;0.0;0.0;0.0
0.02;0.0;-4.0;4.0;0.0;0.00023999999999999998;0.0;0.0;0.0;0.0
0.024;0.0;-4.0;4.0;0.0;0.00023999999999999998;0.0;0.0;0.0;0.0
0.028;0.0;-4.0;4.0;0.0;0.00023999999999999998;0.0;0.0;0.0;0.0
0.032;0.0;-4.0;4.0;0.0;0.00023999999999999998;0.0;0.0;0.0;0.0
0.036000000000000004;0.0;-4.0;4.0;0.0;0.00023999999999999998;0.0;0.0;0.0;0.0
0.04000000000000001;0.0;-4.0;4.0;0.0;0.00023999999999999998;0.0;0.0;0.0;0.0
0.04400000000000001;0.0;-4.0;4.0;0.0;0.00023999999999999998;0.0;0.0;0.0;0.0
0.048000000000000015;0.0;-4.0;4.0;0.0;0.00023999999999999998;0.0;0.0;0.0;0.0
0.05200000000000002;0.0;-4.0;4.0;0.0;0.00023999999999999998;0.0;0.0;0.0;0.0
0.05600000000000002;1717.0;-4.0;4.0;0.42941756280737003;0.00023999999999999998;0.0;107.3543907018425;0.0;107.3543907018425
0.060000000000000026;18835.0;-4.0;1721.0;4.279434958014227;0.00023999999999999998;0.53243756280737;962.5043488017143;0.0;962.5043488017143
0.06400000000000003;102972.0;2126.0;16709.0;21.03429059662772;0.53267756280737;4.749297395206857;4188.713909653373;0.0;4188.713909653373
0.06800000000000003;381036.0;23253.0;79719.0;69.51603971066659;5.281974958014227;20.53545563861349;12120.437278509717;0.0;12120.437278509717
0.07200000000000004;1086214.0;126522.0;254514.0;176.29453290817995;25.81743059662772;58.969449114038866;26694.623299378338;0.0;26694.623299378338
0.07600000000000004;2560410.0;465669.0;620545.0;368.5488294466431;84.78687971066658;128.74035319751334;48063.57413461578;250.0;47813.57413461578
0.08000000000000004;5221598.0;1319777.0;1240633.0;665.2969548867711;213.52723290817994;229.45957653846312;74187.03136003201;833.3333333333334;73353.69802669868
0.08400000000000005;9521777.0;3091724.0;2129874.0;1075.0448612798812;442.98680944664306;350.102585440128;102436.97659827751;2000.0;100436.97659827751
0.08800000000000005;15925537.0;6264081.0;3257696.0;1600.939807071802;793.0893948867711;477.41722639311;131473.73644798022;3750.0;127723.73644798023
0.09200000000000005;24904568.0;11346107.0;4579430.0;2244.7577582606787;1270.506621279881;605.1989857919209;160954.48779721913;6500.0;154454.48779721913
0.09600000000000006;36922659.0;18848929.0;6055639.0;3004.522512403003;1875.705607071802;732.3904911888765;189941.18853558108;10250.0;179691.18853558108
0.10000000000000006;52405589.0;29281313.0;7641346.0;3870.7321906995667;2608.0960982606784;854.9071741423245;216552.41957414092;15000.0;201552.41957414092
0.10400000000000006;71712224.0;43133326.0;9272263.0;4826.658600477076;3463.003272403003;964.0646982965641;238981.60244437735;20666.666666666668;218314.9357777107
0.10800000000000007;95112574.0;60841597.0;10870627.0;5850.087141010793;4427.067970699567;1051.828249777509;255857.1351334292;27333.333333333332;228523.80180009588
0.11200000000000007;122769619.0;82757181.0;12355393.0;6914.260936051767;5478.896220477076;1112.5145005337172;266043.44876024354;34833.333333333336;231210.11542691023
0.11600000000000008;154732502.0;109122823.0;13646796.0;7990.720414886039;6591.410721010793;1141.6579750409737;269114.869708568;43000.0;226114.869708568
0.12000000000000008;190942345.0;140055097.0;14677405.0;9052.460399134417;7733.068696051767;1138.2960188342731;265434.9960620946;51583.333333333336;213851.66272876124
0.12400000000000008;231241393.0;175540555.0;15401790.0;10074.761537904868;8871.36471488604;1105.2030842483764;255575.2846926125;60416.666666666664;195158.61802594585
0.12800000000000009;275384833.0;215446826.0;15794567.0;11035.85933425688;9976.567799134416;1045.8677587704515;240274.44908800317;69250.0;171024.44908800317
0.1320000000000001;323055411.0;259536568.0;15848265.0;11917.644002184157;11022.435557904868;964.3196763520118;220446.16698181926;77750.0;142696.16698181926
0.1360000000000001;373875716.0;307483588.0;15571823.0;12705.07562170169;11986.75523425688;865.1981479272781;196857.9048793831;85916.66666666667;110941.23821271645
0.1400000000000001;427420668.0;358891401.0;14984315.0;13386.23754330132;12851.953382184158;752.1811395175318;170290.48039990765;93333.33333333333;76957.14706657434
0.1440000000000001;483237102.0;413307939.0;14112729.0;13954.10764856457;13604.13452170169;628.866761599631;141967.5263158124;100083.33333333333;41884.192982479064
0.1480000000000001;540868047.0;470239944.0;12997158.0;14407.735583271202;14233.00128330132;500.9358452632496;113406.983676658;105916.66666666667;7490.3170099913295
0.1520000000000001;599874662.0;529175692.0;11692355.0;14751.652996812703;14733.93712856457;375.33975470663245;85979.35338537536;110916.66666666667;-24937.31328129131
0.1560000000000001;659857545.0;589612799.0;10261863.0;14995.720141313825;15109.276883271203;258.0878935415003;61016.786125280305;114833.33333333333;-53816.54720805302
0.16000000000000011;720478982.0;651082258.0;8775287.0;15155.358550500167;15367.364776812703;154.8725845011213;39909.60229658549;117750.0;-77840.3977034145
0.16400000000000012;781476262.0;713171207.0;7307775.0;15249.319189587344;15522.237361313824;71.58768918634269;23490.159771794424;119750.0;-96259.84022820558
0.16800000000000012;842661610.0;775546507.0;5929755.0;15296.336254865544;15593.825050500167;11.279439087176797;11754.26631954997;121000.0;-109245.73368045004
0.17200000000000013;903915221.0;837966924.0;4694686.0;15313.402206367762;15605.104489587344;-27.08707472179958;4266.487875554503;121666.66666666667;-117400.17879111216
0.17600000000000013;965173641.0;900278993.0;3636228.0;15314.604277476708;15578.017414865544;-46.4415284977822;300.51777723656414;121833.33333333333;-121532.81555609676
0.18000000000000013;1026413033.0;962405296.0;2768345.0;15309.847154595192;15531.575886367762;-50.87090889105275;-1189.2807203789744;121666.66666666667;-122855.94738704564
0.18400000000000014;1087631655.0;1024328115.0;2084918.0;15304.654882864046;15480.70497747671;-45.762742881517624;-1298.06793278658;121333.33333333333;-122631.40126611991
0.18800000000000014;1148836380.0;1086067883.0;1563772.0;15301.180386253523;15434.942234595192;-36.46103173114534;-868.624152630673;120916.66666666667;-121785.29081929734
0.19200000000000014;1210034769.0;1147661807.0;1174573.0;15299.596456133746;15398.481202864046;-26.82643661052316;-395.98252994437644;120666.66666666667;-121062.64919661105
0.19600000000000015;1271231863.0;1209148426.0;886343.0;15299.272953615919;15371.654766253523;-18.87773011977697;-80.87562945684112;120333.33333333333;-120414.20896279017
0.20000000000000015;1332429897.0;1270559534.0;672329.0;15299.507761454315;15352.777036133746;-13.164342517828118;58.70195959914781;120083.33333333333;-120024.63137373418
0.20400000000000015;1393629232.0;1331917984.0;511913.0;15299.833054361778;15339.612693615918;-9.3901521616026;81.32322686560656;119583.33333333333;-119502.01010646773
0.20800000000000016;1454829419.0;1393238874.0;390358.0;15300.04582664028;15330.222541454315;-6.968007092536936;53.193069625649514;119000.0;-118946.80693037435
0.21200000000000016;1516029901.0;1454531892.0;297527.0;15300.11981407439;15323.254534361778;-5.357087721498829;18.496858527669247;117833.33333333333;-117814.83647480566
0.21600000000000016;1577230321.0;1515803481.0;226420.0;15300.104433953438;15317.89744664028;-4.1924325658892485;-3.845030238153413;116000.0;-116003.84503023815
0.22000000000000017;1638430553.0;1577058301.0;172020.0;15300.057126355154;15313.70501407439;-3.279380120951828;-11.826899571133254;113166.66666666667;-113178.4935662378
0.22400000000000017;1699630614.0;1638300003.0;130550.0;15300.014596233492;15310.425633953439;-2.535507598284312;-10.632530415477959;109333.33333333333;-109343.9658637488
0.22800000000000017;1760830578.0;1699531563.0;99051.0;15299.990204825848;15307.890126355154;-1.9324701216628455;-6.097851910908503;104583.33333333333;-104589.43118524423
0.23200000000000018;1822030510.0;1760755393.0;75185.0;15299.982442711178;15305.957656233491;-1.456351407643524;-1.9405286675464595;98833.33333333333;-98835.27386200087
0.23600000000000018;1883230451.0;1821973398.0;57112.0;15299.984309367173;15304.501304825848;-1.0921421146704233;0.466663998849981;92250.0;-92249.53333600116
0.24000000000000019;1944430411.0;1883187034.0;43417.0;15299.989286241327;15303.409162711177;-0.8198333440032002;1.2442185384315962;84750.0;-84748.75578146157
0.2440000000000002;2005630388.0;1944397391.0;33020.0;15299.99356843232;15302.589329367174;-0.6188431258469791;1.070547748440731;76666.66666666667;-76665.59611891823
0.2480000000000002;2066830374.0;2005605272.0;25116.0;15299.995910397593;15301.970486241327;-0.4699578090057912;0.585491317906417;68000.0;-67999.4145086821
0.25200000000000017;2128030364.0;2066811274.0;19100.0;15299.996571019205;15301.500528432322;-0.35861803472835163;0.16515540301043075;59166.666666666664;-59166.501511263654
0.25600000000000017;2189230352.0;2128015841.0;14523.0;15299.99630770504;15301.141910397593;-0.27395937838809914;-0.06582854121006676;50250.0;-50250.06582854121
0.2600000000000002;2250430338.0;2189219312.0;11040.0;15299.995781361391;15300.867951019205;-0.20924331416608766;-0.13158591218598303;41750.0;-41750.13158591218
0.2640000000000002;2311630322.0;2250421946.0;8392.0;15299.995356955917;15300.658707705039;-0.15940634364778816;-0.1061013686012302;33666.666666666664;-33666.77276803527
0.2680000000000002;2372830306.0;2311623943.0;6379.0;15299.995139470944;15300.499301361391;-0.1212044054755097;-0.054371243095374666;26166.666666666668;-26166.721037909763
0.2720000000000002;2434030289.0;2372825455.0;4851.0;15299.99508959952;15300.378096955916;-0.0918974849719234;-0.01246785586772603;19416.666666666668;-19416.679134522536
0.2760000000000002;2495230272.0;2434026599.0;3690.0;15299.995126071079;15300.286199470944;-0.06970987142267404;0.009117889476328855;13583.333333333334;-13583.324215443858
0.2800000000000002;2556430256.0;2495227464.0;2808.0;15299.99518272508;15300.216489599521;-0.05288352844218025;0.014163500509312144;8666.666666666666;-8666.652503166157
0.2840000000000002;2617630240.0;2556428118.0;2138.0;15299.995225300616;15300.163606071079;-0.04014334599742142;0.01064388379745651;4750.0;-4749.9893561162025
0.2880000000000002;2678830224.0;2617628611.0;1629.0;15299.995245641536;15300.123462725081;-0.030497424466375378;0.00508522998643457;1750.0;-1749.9949147700136
0.2920000000000002;2740030207.0;2678828982.0;1242.0;15299.995249181571;15300.092965300615;-0.02319965907918231;0.0008850088306644466;-250.0;250.00088500883066
0.2960000000000002;2801230191.0;2740029261.0;946.0;15299.995244646876;15300.069765641536;-0.017756459965312388;-0.0011336737770761829;-1500.0;1499.998866326223
0.3000000000000002;2862430175.0;2801229469.0;722.0;15299.995238667958;15300.05200918157;-0.013444534693917376;-0.0014947295312595088;-2166.6666666666665;2166.6651719371353
0.3040000000000002;2923630159.0;2862429623.0;552.0;15299.995234448028;15300.038564646877;-0.01020597891874786;-0.0010549824764893856;-2250.0;2249.9989450175235
0.3080000000000002;2984830143.0;2923629736.0;423.0;15299.99523257712;15300.028358667958;-0.007744219930827967;-0.00046772720452281646;-2083.3333333333335;2083.332865606129
0.3120000000000002;3046030127.0;2984829818.0;325.0;15299.995232372574;15300.020614448027;-0.005881870907614939;-5.113633960718289e-05;-1750.0;1749.9999488636604
0.3160000000000002;3107230111.0;3046029876.0;251.0;15299.995232911106;15300.01473257712;-0.0044402045459719375;0.00013463295545079745;-1416.6666666666667;1416.6668012996222
0.32000000000000023;3168429779.0;3107229917.0;194.0;15299.91632551694;15300.010292372574;-0.003419461467274232;-19.726848541267827;-1083.3333333333333;1063.6064847920654
0.32400000000000023;3229627091.0;3168429944.0;-165.0;15299.327224475597;15300.006872911106;-0.10044739416480297;-147.27526033584581;-833.3333333333334;686.0580729974876
0.32800000000000024;3290815858.0;3229629569.0;-2478.0;15297.191253950268;15299.906425516941;-0.7278810413445171;-533.9926313322394;-583.3333333333334;49.34070200109397
0.33200000000000024;3351979396.0;3290826283.0;-10425.0;15290.883541427587;15299.178544475597;-2.612790525328819;-1576.9281306702396;-500.0;-1076.9281306702396
0.33600000000000024;3413070182.0;3352012546.0;-33150.0;15272.695886065449;15296.565753950268;-7.671212522680435;-4546.913840534671;-333.3333333333333;-4213.580507201338
0.34000000000000025;3473976259.0;3413168124.0;-97942.0;15226.51850642945;15288.894541427588;-22.075175362138907;-11544.344908999847;-333.3333333333333;-11211.011575666513
0.34400000000000025;3534493474.0;3474235401.0;-259142.0;15129.303124046697;15266.819366065449;-55.84937963599987;-24303.845595688017;-250.0;-24053.845595688017
0.34800000000000025;3594311331.0;3535079280.0;-585806.0;14954.463439525338;15210.969986429449;-116.81522238275102;-43709.921130339804;-416.6666666666667;-43293.25446367314
0.35200000000000026;3653006237.0;3595455899.0;-1144568.0;14673.725716676528;15094.154764046698;-208.3654045213607;-70184.43071220236;-916.6666666666666;-69267.76404553569
0.35600000000000026;3710046013.0;3654999056.0;-1992819.0;14259.943493949822;14885.789359525337;-331.63278284880835;-103445.55568167652;-1916.6666666666667;-101528.88901500986
0.36000000000000026;3764808642.0;3713215682.0;-3169669.0;13690.656566427686;14554.156576676529;-484.3932227267069;-142321.73188053412;-3666.6666666666665;-138655.06521386746
0.36400000000000027;3816606214.0;3769494735.0;-4686093.0;12949.392397234556;14069.763353949822;-660.2723675221368;-185316.04229828235;-6250.0;-179066.04229828235
0.36800000000000027;3864716476.0;3823132698.0;-6526484.0;12027.564961852262;13409.490986427685;-851.6876291931294;-230456.85884557362;-10166.666666666666;-220290.19217890693
0.3720000000000003;3908443454.0;3873363911.0;-8647435.0;10931.743953885622;12557.803357234556;-1049.0844953822943;-273955.25199166016;-15250.0;-258705.25199166013
0.3760000000000003;3947203096.0;3919398786.0;-10955332.0;9689.910058906773;11508.718861852261;-1234.2948279666398;-310458.47374471213;-22000.0;-288458.47374471213
0.3800000000000003;3980593701.0;3960496482.0;-13293386.0;8347.650776821729;10274.424033885622;-1382.1171349788492;-335564.820521261;-30083.333333333332;-305481.4871879277
0.3840000000000003;4008439269.0;3996065709.0;-15472008.0;6961.39166044885;8892.306898906772;-1472.9766020850439;-346564.7790932196;-39666.666666666664;-306898.1124265529
0.3880000000000003;4030819197.0;4025743030.0;-17303761.0;5594.981640665931;7419.330296821729;-1496.1642963728782;-341602.50494572986;-50333.333333333336;-291269.1716123965
0.3920000000000003;4048067833.0;4049435694.0;-18616497.0;4312.159001833046;5923.16600044885;-1445.174179782919;-320705.6597082212;-61666.666666666664;-259038.99304155455
0.3960000000000003;4060729564.0;4067347661.0;-19279828.0;3165.4325327083757;4477.991820665931;-1322.622498832885;-286681.61728116765;-73166.66666666667;-213514.95061450097
0.4000000000000003;4069491668.0;4079969138.0;-19239574.0;2190.525984636168;3155.3693218330463;-1144.3112291246705;-243726.637018052;-84166.66666666667;-159559.9703513853
0.4040000000000003;4075116898.0;4088013370.0;-18521702.0;1406.3072222319151;2011.0580927083759;-931.8342280722079;-196054.69060106316;-94416.66666666667;-101638.02393439648
0.4080000000000003;4078375742.0;4092330265.0;-17213367.0;814.711071599558;1079.223864636168;-705.7186624042527;-147899.0376580893;-103250.0;-44649.0376580893
0.4120000000000003;4079982451.0;4093824285.0;-15448543.0;401.6772701069744;373.5052022319153;-485.7067106323573;-103258.4503731459;-110583.33333333333;7324.882960187438
0.4160000000000003;4080551004.0;4093375479.0;-13393028.0;142.1382459737978;-112.20150840044198;-289.7029014925835;-64884.75603329414;-116000.0;51115.24396670586
0.4200000000000003;4080569268.0;4091767862.0;-11216858.0;4.566050197890924;-401.9044098930255;-128.9688241331766;-34393.04894397672;-119916.66666666667;85523.61772268995
0.4240000000000003;4080379892.0;4089644370.0;-9075102.0;-47.34406231139203;-530.8732340262021;-9.066835775906839;-12977.528127320738;-122250.0;109272.47187267926
0.4280000000000003;4080179006.0;4087484610.0;-7104718.0;-50.221596828333126;-539.940069802109;66.31292749071696;-719.3836292352742;-123416.66666666667;122697.28303743139
0.43200000000000033;4080044813.0;4085590102.0;-5411096.0;-33.54814519008612;-473.627142311392;98.73978548305888;4168.3629095617525;-123583.33333333333;127751.69624289508
0.43600000000000033;4079983385.0;4084090553.0;-4045740.0;-15.35703450428934;-374.8873568283331;98.594811638247;4547.777671449195;-123083.33333333333;127631.11100478252
0.44000000000000034;4079970719.0;4082985383.0;-3001998.0;-3.1665478441497963;-276.2925451900861;80.81563068579678;3047.621665034886;-122416.66666666667;125464.28833170155
0.44400000000000034;4079979890.0;4082203476.0;-2232757.0;2.2929029507302245;-195.47691450428934;58.344946660139556;1364.8626987200053;-121666.66666666667;123031.52936538668
0.44800000000000034;4079992774.0;4081654949.0;-1675059.0;3.2207648524239616;-137.13196784414978;38.92133079488002;231.96547542343427;-121166.66666666667;121398.63214209011
0.45200000000000035;4080001371.0;4081262107.0;-1269333.0;2.149411125555562;-98.21063704926976;25.271421901693742;-267.83843171709987;-120666.66666666667;120398.82823494957
0.45600000000000035;4080004543.0;4080970351.0;-968980.0;0.7930262267076801;-72.93921514757602;16.949826273131585;-339.09622471197054;-120333.33333333333;119994.23710862135
0.46000000000000035;4080004147.0;4080746394.0;-741851.0;-0.09895360773710901;-55.98938887444444;12.271355101152125;-222.99495861119726;-120083.33333333333;119860.33837472214
0.46400000000000036;4080002412.0;4080571522.0;-567375.0;-0.4337526120868212;-43.71803377329231;9.576580165555207;-83.69975108742804;-120000.0;119916.30024891256
0.46800000000000036;4080000799.0;4080434957.0;-432545.0;-0.40336344360010395;-34.141453607737105;7.755000995650288;7.5972921216793114;-119833.33333333333;119840.930625455
0.47200000000000036;4079999884.0;4080329412.0;-328613.0;-0.2287176839607247;-26.386452612086817;6.266309168486714;43.661439909844816;-119666.66666666667;119710.32810657652
0.47600000000000037;4079999686.0;4080248932.0;-249048.0;-0.049651914601800094;-20.120143443600103;4.94854575963938;44.76644233973115;-119333.33333333333;119378.09977567306
0.48000000000000037;4080000005.0;4080188246.0;-188560.0;0.07990500396621189;-15.171597683960723;3.808345769358924;32.389229642002995;-118916.66666666667;118949.05589630868
0.4840000000000004;4080000612.0;4080142793.0;-142788.0;0.15159855937010636;-11.363251914601799;2.8758769185680126;17.923388850973616;-117833.33333333333;117851.2567221843
0.4880000000000004;4080001284.0;4080108844.0;-108232.0;0.1680725011698717;-8.487374996033786;2.1450535554038934;4.118485449941339;-116083.33333333333;116087.45181878327
0.4920000000000004;4080001823.0;4080083475.0;-82191.0;0.13489410759955595;-6.342321440629893;1.5789339417997645;-8.294598392578942;-113333.33333333333;113325.03873494075
0.4960000000000004;4080002091.0;4080064422.0;-62599.0;0.0670117963451332;-4.763387498830128;1.1423416064296843;-16.970577813605686;-109500.0;109483.02942218639
0.5000000000000003;4080002047.0;4080049938.0;-47847.0;-0.011016161941423715;-3.621045892400444;0.8172376887455775;-19.506989571639227;-104333.33333333333;104313.82634376168
0.5040000000000003;4080001748.0;4080038723.0;-36676.0;-0.0748089067248756;-2.8038082036548664;0.592232041713443;-15.94818619586297;-97666.66666666667;97650.71848047081
0.5080000000000003;4080001309.0;4080029877.0;-28129.0;-0.10978991378533742;-2.2115761619414234;0.44902725521654796;-8.745251765115457;-89500.0;89491.25474823489
