Zeit[sec];Sollposition[°];Istposition[°];Positionsschleppfehler[°];Sollgeschwindigkeit[°/s];Istgeschwindigkeit[°/s];Geschwindigkeitsdifferenz[°/s];Sollbeschleunigung[°/s*s];Istbeschleunigung[°/s*s];Beschleunigungsdifferenz[°/s*s]
0.0;0.0;-4.0;4.0;-0.0;0.00023999999999999998;0.0;0.0;0.0;0.0
0.004;0.0;-4.0;4.0;-0.0;0.00023999999999999998;0.0;0.0;0.0;0.0
0.008;0.0;-4.0;4.0;-0.0;0.00023999999999999998;0.0;0.0;0.0;0.0
0.012;0.0;-4.0;4.0;-0.0;0.00023999999999999998;0.0;0.0;0.0;0.0
0.016;0.0;-4.0;4.0;-0.0;0.00023999999999999998;0.0;0.0;0.0;0.0
0.02;0.0;-4.0;4.0;-0.0;0.00023999999999999998;0.0;0.0;0.0;0.0
0.024;0.0;-4.0;4.0;-0.0;0.00023999999999999998;0.0;0.0;0.0;0.0
0.028;0.0;-4.0;4.0;-0.0;0.00023999999999999998;0.0;0.0;0.0;0.0
0.032;0.0;-4.0;4.0;-0.0;0.00023999999999999998;0.0;0.0;0.0;0.0
0.036000000000000004;0.0;-4.0;4.0;-0.0;0.00023999999999999998;0.0;0.0;0.0;0.0
0.04000000000000001;0.0;-4.0;4.0;-0.0;0.00023999999999999998;0.0;0.0;0.0;0.0
0.04400000000000001;0.0;-4.0;4.0;-0.0;0.00023999999999999998;0.0;0.0;0.0;0.0
0.048000000000000015;0.0;-4.0;4.0;-0.0;0.00023999999999999998;0.0;0.0;0.0;0.0
0.05200000000000002;0.0;-4.0;4.0;-0.0;0.00023999999999999998;0.0;0.0;0.0;0.0
0.05600000000000002;0.0;-4.0;4.0;-0.0;0.00023999999999999998;0.0;0.0;0.0;0.0
0.060000000000000026;3432.0;-4.0;4.0;0.8582496442147534;0.00023999999999999998;0.0;214.56241105368835;0.0;214.56241105368835
0.06400000000000003;37645.0;-4.0;3436.0;8.553035199921448;0.00023999999999999998;1.0641696442147532;1923.6963889266735;0.0;1923.6963889266735
0.06800000000000003;205804.0;4253.0;33392.0;42.039902380433674;1.0644096442147533;9.492145555706694;8371.716795128057;0.0;8371.716795128057
0.07200000000000004;761405.0;46479.0;159325.0;138.90028648454052;10.556555199921448;41.042847180512226;24215.09602602671;0.0;24215.09602602671
0.07600000000000004;2169547.0;252876.0;508529.0;352.0353638845578;51.59940238043367;117.81262410410685;53283.76935000432;83.33333333333333;53200.43601667099
0.08000000000000004;5110667.0;930524.0;1239023.0;735.2799333132791;169.41202648454052;256.9647174000172;95811.14235718033;583.3333333333334;95227.809023847
0.08400000000000005;10414253.0;2636030.0;2474637.0;1325.8963994932174;426.37674388455775;457.3814094287213;147654.11654498457;1666.6666666666667;145987.4498783179
0.08800000000000005;18973902.0;6171062.0;4243191.0;2139.9121457859383;883.7581533132791;696.7297061799384;203503.93657318022;3916.6666666666665;199587.26990651357
0.09200000000000005;31703555.0;12493013.0;6480889.0;3182.4131357623833;1580.4878594932175;948.2776262927209;260625.24749411125;7500.0;253125.24749411125
0.09600000000000006;49525996.0;22608074.0;9095481.0;4455.6100018448815;2528.7654857859384;1199.3765099764446;318299.2165206245;13000.0;305299.2165206245
0.10000000000000006;73342705.0;37520641.0;12005355.0;5954.177001821688;3728.141995762383;1447.7893060824981;374641.7499942015;20416.666666666668;354225.08332753484
0.10400000000000006;103973550.0;58224366.0;15118339.0;7657.710826824197;5175.931301844881;1685.3460399768064;425883.4562506274;29750.0;396133.4562506274
0.10800000000000007;142101516.0;85669475.0;18304075.0;9531.991260961791;6861.2773418216875;1894.6779850025105;468570.1085343985;41083.333333333336;427486.7752010652
0.11200000000000007;188239999.0;120693296.0;21408220.0;11534.620153281465;8755.955326824198;2060.5291341375923;500657.22307991836;54083.333333333336;446573.88974658505
0.11600000000000008;242715308.0;163959233.0;24280766.0;13618.826567290982;10816.48446096179;2174.981652319675;521051.60350237926;68833.33333333333;452218.27016904595
0.12000000000000008;305673261.0;215925097.0;26790211.0;15739.487471384915;12991.466113281465;2234.7731140095166;530165.2260234832;84750.0;445415.2260234832
0.12400000000000008;377118423.0;276830053.0;28843208.0;17861.289701857157;15226.239227290982;2243.840724093934;530450.5576180604;101666.66666666667;428783.89095139375
0.12800000000000009;456969201.0;346710372.0;30408051.0;19962.693572088458;17470.079951384916;2215.692810472239;525350.9675578253;119000.0;406350.96755782526
0.1320000000000001;545104849.0;425453463.0;31515738.0;22033.91079185117;19685.772761857155;2167.865090231302;517804.3049406779;136416.66666666666;381387.6382740112
0.1360000000000001;641390250.0;512868014.0;32236835.0;24071.349272545962;21853.637852088457;2114.483039762712;509359.6201736982;153666.66666666666;355692.95350703155
0.1400000000000001;745678964.0;608740497.0;32649753.0;26072.177167679154;23968.12089185117;2062.2135606947922;500206.97378329805;170583.33333333334;329623.64044996473
0.1440000000000001;857803381.0;712861834.0;32817130.0;28031.102990049018;26030.33445254596;2010.8705151331924;489731.4555924659;187166.66666666666;302564.7889257992
0.1480000000000001;977553559.0;825026653.0;32776728.0;29937.54293169849;28041.204967679154;1956.5017023698638;476609.9854123677;203250.0;273359.9854123677
0.1520000000000001;1104648021.0;945017479.0;32536080.0;31773.61413340227;29997.706670049018;1892.0010616494692;459017.8004259451;218916.66666666666;240101.13375927845
0.1560000000000001;1238707621.0;1072576309.0;32071712.0;33514.89828210504;31889.707731698487;1808.2091217037814;435321.03717569227;234166.66666666666;201154.37050902558
0.16000000000000011;1379225982.0;1207367976.0;31339645.0;35129.5887606559;33697.91685340227;1697.3601287027705;403672.6196377149;248916.66666666666;154755.95297104825
0.16400000000000012;1525530718.0;1348949083.0;30276899.0;36576.18217846819;35395.27698210504;1550.9257185508613;361648.3544530729;263000.0;98648.3544530729
0.16800000000000012;1676765650.0;1496733893.0;28796825.0;37808.73118060251;36946.2027006559;1357.7889778122917;308137.2505335803;276166.6666666667;31970.583866913614
0.17200000000000013;1831921838.0;1649949859.0;26815791.0;38789.04524288126;38303.99167846819;1113.6869621343212;245078.51556968672;288166.6666666667;-43088.15109697997
0.17600000000000013;1989901916.0;1807620573.0;24301265.0;39495.017666914;39417.67864060251;829.44250227874;176493.10600818536;298666.6666666667;-122173.56065848134
0.18000000000000013;2149586693.0;1968609057.0;21292859.0;39921.19223243442;40247.12114288125;525.4680640327424;106543.64138010533;307166.6666666667;-200623.02528656134
0.18400000000000014;2309893481.0;2131699413.0;17887280.0;40076.69514354314;40772.589206913995;221.8398255204229;38875.727777180145;313583.3333333333;-274707.60555615317
0.18800000000000014;2469823883.0;2295677129.0;14216352.0;39982.598525901296;40994.42903243442;-64.75276889128145;-23524.15441046105;317666.6666666667;-341190.8210771277
0.19200000000000014;2628495149.0;2459395834.0;10428049.0;39667.814727979065;40929.67626354314;-321.39479764184216;-78695.94948055783;319583.3333333333;-398279.2828138911
0.19600000000000015;2785168548.0;2621828959.0;6666190.0;39168.34772970935;40608.281465901295;-540.4953379222279;-124866.749567429;319166.6666666667;-444033.4162340957
0.20000000000000015;2939285883.0;2782100103.0;3068445.0;38529.33208678966;40067.78612797907;-715.3316982697215;-159753.9107299217;316666.6666666667;-476420.5773965884
0.20400000000000015;3090486504.0;2939509920.0;-224037.0;37800.15329423164;39352.454429709345;-836.5645629196806;-182294.6981395053;312333.3333333333;-494628.0314728386
0.20800000000000016;3238580263.0;3093573479.0;-3086975.0;37023.437981450785;38515.889866789665;-900.9550725580266;-194178.828195214;306500.0;-500678.82819521404
0.21200000000000016;3383492043.0;3244033218.0;-5452955.0;36227.94341679956;37614.93479423164;-918.6741127808564;-198873.64116280695;299083.3333333333;-497956.97449614026
0.21600000000000016;3525205779.0;3390818260.0;-7326217.0;35428.43234521078;36696.26068145078;-907.8902846512283;-199877.76789719466;290000.0;-489877.76789719466
0.22000000000000017;3663723511.0;3533971741.0;-8765962.0;34629.43137983871;35788.37039679955;-885.8957715887736;-199750.2413430175;279166.6666666667;-478916.9080096842
0.22400000000000017;3799042986.0;3673581639.0;-9858128.0;33829.867091792294;34902.47462521078;-864.5309253720698;-199891.07201160368;266666.6666666667;-466557.73867827037
0.22800000000000017;3931150257.0;3809733413.0;-10690427.0;33026.8161706526;34037.94369983871;-849.5022280464182;-200762.73028492322;252333.33333333334;-453096.0636182566
0.23200000000000018;4060021119.0;3942487178.0;-11336921.0;32217.713990652937;33188.44147179229;-841.840561139692;-202275.54499991584;236166.66666666666;-438442.2116665825
0.23600000000000018;4185625736.0;4071873581.0;-11852462.0;31401.152583823357;32346.6009106526;-840.0346399996633;-204140.351707395;218250.0;-422390.351707395
0.24000000000000019;4307932907.0;4197899846.0;-12274110.0;30576.791450289995;31506.566270652937;-841.8602868295784;-206090.28338334063;198583.33333333334;-404673.616716674
0.2440000000000002;4426912812.0;4320558669.0;-12625762.0;29744.97486659591;30664.705983823358;-845.4602535333615;-207954.14592352154;177333.33333333334;-385287.47925685486
0.2480000000000002;4542538358.0;4439835651.0;-12922839.0;28906.38504056948;29819.245730289997;-849.6412036940892;-209647.45650660736;154750.0;-364397.45650660736
0.25200000000000017;4654785487.0;4555714069.0;-13175711.0;28061.780848674476;28969.604526595907;-853.7621460264272;-211151.0479737508;131250.0;-342401.0479737508
0.25600000000000017;4763632953.0;4668177438.0;-13391951.0;27211.865320084435;28115.84238056948;-857.5785918950023;-212478.88214751036;107333.33333333333;-319812.2154808437
0.2600000000000002;4869062070.0;4777210493.0;-13577540.0;26357.27792019547;27258.263788674478;-861.0508685900422;-213646.84997224138;83250.0;-296896.8499722414
0.2640000000000002;4971056432.0;4882799344.0;-13737274.0;25498.58938641429;26397.212920084436;-864.1714398889671;-214672.133445295;59333.333333333336;-274005.46677862835
0.2680000000000002;5069601529.0;4984931509.0;-13875077.0;24636.272947273865;25533.04148019547;-866.9567137811791;-215579.1097851061;35583.333333333336;-251162.4431184394
0.2720000000000002;5164684345.0;5083595848.0;-13994319.0;23770.703035508373;24666.08476641429;-869.4709591404244;-216392.4779413728;12333.333333333334;-228725.81127470615
0.2760000000000002;5256292989.0;5178782303.0;-14097958.0;22902.159834337373;23796.613807273865;-871.7882517654907;-217135.80029275;-10583.333333333334;-206552.46695941666
0.2800000000000002;5344416269.0;5270481605.0;-14188616.0;22030.81898924844;22924.825555508374;-873.9826811710009;-217835.21127223322;-33000.0;-184835.21127223322
0.2840000000000002;5429043289.0;5358684976.0;-14268707.0;21156.753977519464;22050.842874337373;-876.1463050889324;-218516.25293224424;-55083.333333333336;-163432.9195989109
0.2880000000000002;5510163146.0;5443383762.0;-14340473.0;20279.963182749107;21174.69656924844;-878.3709717289785;-219197.69869258924;-76666.66666666667;-142531.03202592258
0.2920000000000002;5587764763.0;5524569064.0;-14405918.0;19400.403332452326;20296.325597519462;-880.717494770357;-219889.96257419512;-97500.0;-122389.96257419512
0.2960000000000002;5661836824.0;5602231496.0;-14466733.0;18518.01444991464;19415.608102749105;-883.2087502967806;-220597.22063442133;-117583.33333333333;-103013.88730108799
0.3000000000000002;5732367774.0;5676361093.0;-14524269.0;17632.736589905795;18532.399352452325;-885.8410425376824;-221319.46500221148;-136416.66666666666;-84902.79833554482
0.3040000000000002;5799345846.0;5746947326.0;-14579552.0;16744.517390068795;17646.558309914642;-888.5948400088491;-222054.79995924997;-153916.66666666666;-68138.13329258331
0.3080000000000002;5862759094.0;5813979179.0;-14633333.0;15853.311190285445;16757.963469905793;-891.4460598369988;-222801.54994583744;-169416.66666666666;-53384.8832791708
0.3120000000000002;5922595396.0;5877445248.0;-14686154.0;14959.074848822273;15866.517410068795;-894.3754597833486;-223559.08536579317;-182750.0;-40809.08536579318
0.3160000000000002;5978842428.0;5937333815.0;-14738419.0;14061.757125000808;14972.141950285446;-897.3722414631739;-224329.4309553662;-193750.0;-30579.430955366206
0.32000000000000023;6031487580.0;5993632893.0;-14790465.0;13161.287396532325;14074.769708822272;-900.440483821465;-225117.43211712065;-202500.0;-22617.432117120643
0.32400000000000023;6080517886.0;6046330209.0;-14842629.0;12257.576033852807;13174.329225000807;-903.5995684684822;-225927.84066987952;-209166.66666666666;-16761.17400321286
0.32800000000000024;6125919945.0;6095413127.0;-14895241.0;11350.514128937668;12270.729656532325;-906.8680826795171;-226765.4762287848;-213750.0;-13015.476228784792
0.33200000000000024;6167679822.0;6140868573.0;-14948628.0;10439.968801917232;11363.861573852808;-910.2651249151404;-227636.33175510904;-216750.0;-10886.33175510904
0.33600000000000024;6205783081.0;6182682958.0;-15003136.0;9525.814332676526;10453.596448937667;-913.8158070204354;-228538.61731017652;-218333.33333333334;-10205.283976843162
0.34000000000000025;6240215166.0;6220842080.0;-15058999.0;8608.020711490712;9539.780641917232;-917.5062492407069;-229448.40529645354;-219083.33333333334;-10365.071963120186
0.34400000000000025;6270962073.0;6255331177.0;-15116011.0;7686.726349304893;8622.274392676525;-921.2143411858133;-230323.59054645462;-219250.0;-11073.590546454625
0.34800000000000025;6298014704.0;6286135417.0;-15173344.0;6763.1576541729155;7701.060051490712;-924.7343421858186;-230892.17378299442;-219333.33333333334;-11558.840449661062
0.35200000000000026;6321386007.0;6313240719.0;-15226015.0;5842.825310450896;6776.325709304893;-926.7289551319782;-230083.08593050492;-219500.0;-10583.085930504922
0.35600000000000026;6341139993.0;6336639106.0;-15253099.0;4938.496362766713;5849.596754172915;-921.9573837220196;-226082.2369210457;-219833.33333333334;-6248.903587712362
0.36000000000000026;6357414596.0;6356349663.0;-15209670.0;4068.6504559690848;4927.6393704508955;-901.7232076841824;-217461.47669940707;-220250.0;2788.523300592942
0.36400000000000027;6370427865.0;6372453327.0;-15038731.0;3253.317044076958;4025.916162766713;-859.5895667976283;-203833.35297303164;-220750.0;16916.64702696835
0.36800000000000027;6380472924.0;6385118633.0;-14690768.0;2511.264768639835;3166.326595969085;-794.4556318921263;-185513.0688592808;-221166.66666666666;35653.597807385864
0.3720000000000003;6387904213.0;6394606116.0;-14133192.0;1857.8220436132726;2371.8709640769584;-708.5977154371235;-163360.6812566406;-221250.0;57889.318743359414
0.3760000000000003;6393114990.0;6401259208.0;-13354995.0;1302.6942902339008;1663.273248639835;-606.7509050265621;-138781.93834484296;-220833.33333333334;82051.39498849039
0.3800000000000003;6396516542.0;6405485297.0;-12370307.0;850.3880021317411;1056.5223436132728;-496.04647337937195;-113076.57202553992;-219666.66666666666;106590.09464112674
0.3840000000000003;6398527652.0;6407727200.0;-11210658.0;502.77746226289395;560.4758702339009;-382.7273481021597;-86902.6349672118;-217750.0;130847.3650327882
0.3880000000000003;6399560159.0;6408438194.0;-9910542.0;258.12672194158216;177.7485221317412;-269.60357986884725;-61162.685080327945;-215000.0;153837.31491967206
0.3920000000000003;6399984694.0;6408070774.0;-8510615.0;106.13366516921567;-91.85505773710605;-160.65512032131176;-37998.26419309162;-211250.0;173251.73580690837
0.3960000000000003;6400091170.0;6407060734.0;-7076040.0;26.61913492134971;-252.5101780584178;-65.91855677236646;-19878.632561966493;-206666.66666666666;186788.03410470017
0.4000000000000003;6400070668.0;6405787020.0;-5695850.0;-5.1256400215762525;-318.42873483078426;3.2968697521340005;-7936.19373573149;-201166.66666666666;193230.47293093515
0.4040000000000003;6400025368.0;6404526493.0;-4455825.0;-11.325047946334308;-315.13186507865026;42.65672505707403;-1549.851981189514;-195000.0;193450.1480188105
0.4080000000000003;6399994901.0;6403436593.0;-3411225.0;-7.6165149282321485;-272.47514002157624;56.47659207524194;927.13325452554;-188250.0;189177.13325452554
0.4120000000000003;6399984659.0;6402572599.0;-2577698.0;-2.560537779585405;-215.9985479463343;53.72015301810217;1263.9942871616859;-181166.66666666666;182430.66095382834
0.4160000000000003;6399987086.0;6401923486.0;-1938827.0;0.606728369809672;-162.27839492823213;43.38823714864674;791.8165373487693;-174000.0;174791.81653734876
0.4200000000000003;6399993613.0;6401447926.0;-1460840.0;1.6317928969229383;-118.8901577795854;31.846486149395076;256.26613177831655;-166750.0;167006.2661317783
0.4240000000000003;6399999078.0;6401099752.0;-1106139.0;1.3660634145665274;-87.04367163019032;22.30712452711326;-66.43237058910273;-159500.0;159433.56762941089
0.4280000000000003;6400001843.0;6400840806.0;-841728.0;0.6914364564675678;-64.73654710307706;15.598930517643588;-168.6567395247399;-152416.66666666666;152248.00992714192
0.43200000000000033;6400002355.0;6400644256.0;-642413.0;0.12778835986998657;-49.13761658543347;11.284273041901045;-140.9120241493953;-145250.0;145109.0879758506
0.43600000000000033;6400001706.0;6400492843.0;-490488.0;-0.1622287378680102;-37.853343543532425;8.551851903402412;-72.5042744344992;-138250.0;138177.4957255655
0.44000000000000034;6400000808.0;6400375638.0;-373932.0;-0.22451932482820888;-29.301491640130013;6.703342902262005;-15.57264674004967;-131166.66666666666;131151.09401992662
0.44400000000000034;6400000126.0;6400285246.0;-284438.0;-0.17041468093061804;-22.59814873786801;5.307349413039802;13.52616097439771;-124250.0;124263.5261609744
0.44800000000000034;6399999756.0;6400216083.0;-215957.0;-0.09246505408210488;-17.290799324828207;4.16296464389759;19.48740671212829;-117166.66666666667;117186.1540733788
0.45200000000000035;6399999609.0;6400163572.0;-163816.0;-0.03676257897508449;-13.127834680930617;3.2064096268485134;13.925618776755098;-110083.33333333333;110097.25895211009
0.45600000000000035;6399999568.0;6400123887.0;-124278.0;-0.010235739976359178;-9.921425054082103;2.4279824751070196;6.6317097496813275;-103000.0;103006.63170974968
0.46000000000000035;6399999564.0;6400093914.0;-94346.0;-0.001110654476456919;-7.493442578975084;1.822446838998725;2.2812713749755646;-95916.66666666667;95918.94793804165
0.46400000000000036;6399999577.0;6400071231.0;-71667.0;0.0032952824756382515;-5.670995739976359;1.3698650854999022;1.1014842380237926;-88833.33333333333;88834.43481757135
0.46800000000000036;6399999612.0;6400054027.0;-54450.0;0.008781035756352354;-4.301130654476457;1.0374259369520948;1.3714383201785254;-81666.66666666667;81668.03810498684
0.47200000000000036;6399999672.0;6400040973.0;-41361.0;0.015045831773742212;-3.263704717524362;0.7908257532807146;1.5661990043474645;-74583.33333333333;74584.89953233767
0.47600000000000037;6399999750.0;6400031082.0;-31410.0;0.01953818159354024;-2.4728789642436473;0.6033247960173898;1.123087454949507;-67416.66666666667;67417.78975412162
0.48000000000000037;6399999832.0;6400023604.0;-23854.0;0.020426522687209035;-1.8695541682262575;0.45785234981979794;0.22208527341719894;-60250.0;60250.22208527342
0.4840000000000004;6399999903.0;6400017958.0;-18126.0;0.017697247115801406;-1.4117018184064596;0.34456834109366885;-0.6823188928519073;-52916.666666666664;52915.98434777381
0.4880000000000004;6399999954.0;6400013690.0;-13787.0;0.012815949572480605;-1.0671334773127907;0.25761072442859223;-1.2203243858302004;-45666.666666666664;45665.44634228083
0.4920000000000004;6399999985.0;6400010452.0;-10498.0;0.007667050348746841;-0.8095227528841985;0.19245870245667906;-1.2872248059334408;-38500.0;38498.712775194064
0.4960000000000004;6399999999.0;6400007984.0;-7999.0;0.0035915663968063183;-0.6170640504275194;0.14479110077626628;-1.0188709879851308;-31583.333333333332;31582.314462345348
0.5000000000000003;6400000003.0;6400006095.0;-6096.0;0.0010583651421997708;-0.47227294965125316;0.11010451604805949;-0.6333003136516369;-24916.666666666668;24916.033366353015
0.5040000000000003;6400000003.0;6400004647.0;-4644.0;-0.00012681405245847097;-0.3621684336031937;0.08458679874539343;-0.29629479866456043;-18666.666666666668;18666.370371868004
0.5080000000000003;6400000001.0;6400003537.0;-3534.0;-0.00044154646212464223;-0.27758163485780024;0.0654148208053418;-0.07868310241654282;-13166.666666666666;13166.58798356425
