Zeit[sec];Sollposition[°];Istposition[°];Positionsschleppfehler[°];Sollgeschwindigkeit[°/s];Istgeschwindigkeit[°/s];Geschwindigkeitsdifferenz[°/s];Sollbeschleunigung[°/s*s];Istbeschleunigung[°/s*s];Beschleunigungsdifferenz[°/s*s]
0.0;0.0;5.0;-5.0;-0.0;-0.00021499999999999997;0.0;0.0;0.0;0.0
0.004;0.0;5.0;-5.0;-0.0;-0.00021499999999999997;0.0;0.0;0.0;0.0
0.008;0.0;5.0;-5.0;-0.0;-0.00021499999999999997;0.0;0.0;0.0;0.0
0.012;0.0;5.0;-5.0;-0.0;-0.00021499999999999997;0.0;0.0;0.0;0.0
0.016;0.0;5.0;-5.0;-0.0;-0.00021499999999999997;0.0;0.0;0.0;0.0
0.02;0.0;5.0;-5.0;-0.0;-0.00021499999999999997;0.0;0.0;0.0;0.0
0.024;0.0;5.0;-5.0;-0.0;-0.00021499999999999997;0.0;0.0;0.0;0.0
0.028;0.0;5.0;-5.0;-0.0;-0.00021499999999999997;0.0;0.0;0.0;0.0
0.032;0.0;5.0;-5.0;-0.0;-0.00021499999999999997;0.0;0.0;0.0;0.0
0.036000000000000004;0.0;5.0;-5.0;-0.0;-0.00021499999999999997;0.0;0.0;0.0;0.0
0.04000000000000001;0.0;5.0;-5.0;-0.0;-0.00021499999999999997;0.0;0.0;0.0;0.0
0.04400000000000001;0.0;5.0;-5.0;-0.0;-0.00021499999999999997;0.0;0.0;0.0;0.0
0.048000000000000015;0.0;5.0;-5.0;-0.0;-0.00021499999999999997;0.0;0.0;0.0;0.0
0.05200000000000002;0.0;5.0;-5.0;-0.0;-0.00021499999999999997;0.0;0.0;0.0;0.0
0.05600000000000002;0.0;5.0;-5.0;-0.0;-0.00021499999999999997;0.0;0.0;0.0;0.0
0.060000000000000026;-1678.0;5.0;-5.0;-0.41950650712821086;-0.00021499999999999997;0.0;-104.87662678205271;0.0;-104.87662678205271
0.06400000000000003;-18400.0;5.0;-1683.0;-4.1806646192630055;-0.00021499999999999997;-0.4916605071282108;-940.2895280336986;0.0;-940.2895280336986
0.06800000000000003;-100595.0;-1962.0;-16438.0;-20.548814353150735;-0.4918755071282108;-4.395623112134794;-4092.0374334719327;0.0;-4092.0374334719327
0.07200000000000004;-372169.0;-21511.0;-79084.0;-67.8935021004958;-4.887498619263005;-19.061927733887728;-11836.171936836265;0.0;-11836.171936836265
0.07600000000000004;-1060459.0;-117308.0;-254861.0;-172.07245803637565;-23.949426353150734;-54.90309874734506;-26044.738983969964;0.0;-26044.738983969964
0.08000000000000004;-2498058.0;-432718.0;-627741.0;-359.399760506955;-78.8525251004958;-120.21279593587985;-46831.825617644834;-250.0;-46581.825617644834
0.08400000000000005;-5090415.0;-1228979.0;-1269079.0;-648.0890159585998;-199.06532103637565;-214.90483647057934;-72172.3138629112;-750.0;-71422.3138629112
0.08800000000000005;-9274312.0;-2884859.0;-2205556.0;-1045.9742988448536;-413.970157506955;-328.9577664516448;-99471.32072156345;-1833.3333333333333;-97637.9873882301
0.09200000000000005;-15496479.0;-5856570.0;-3417742.0;-1555.5415930835761;-742.9279239585998;-450.0092808862538;-127391.82355968063;-3500.0;-123891.82355968063
0.09600000000000006;-24207965.0;-10628318.0;-4868161.0;-2177.8714405569704;-1192.9372048448536;-571.9353112387225;-155582.46186834856;-6166.666666666667;-149415.7952016819
0.10000000000000006;-35849408.0;-17687808.0;-6520157.0;-2910.3606552010992;-1764.872516083576;-693.3656754733943;-183122.30366103223;-9666.666666666666;-173455.63699436554
0.10400000000000006;-50821554.0;-27520760.0;-8328648.0;-3743.036240353354;-2458.2381915569704;-810.2543276441288;-208168.8962880637;-14166.666666666666;-194002.22962139704
0.10800000000000007;-69458241.0;-40594730.0;-10226824.0;-4659.17159048791;-3268.492519201099;-914.2971531522549;-229033.83753363902;-19500.0;-209533.83753363902
0.11200000000000007;-92010413.0;-57325888.0;-12132353.0;-5638.042781819942;-4182.789672353354;-998.0730971345565;-244717.79783300802;-25750.0;-218967.79783300802
0.11600000000000008;-118637568.0;-78049339.0;-13961074.0;-6656.788503150301;-5180.862769487911;-1057.5061943320316;-254686.4303325897;-32833.333333333336;-221853.09699925635
0.12000000000000008;-149410982.0;-103002814.0;-15634754.0;-7693.352927823696;-6238.368963819942;-1090.7139613303589;-259141.10616834863;-40583.333333333336;-218557.77283501532
0.12400000000000008;-184332884.0;-132319145.0;-17091837.0;-8730.475224959544;-7329.082925150301;-1099.2189936733948;-259280.5742839621;-48833.333333333336;-210447.24095062877
0.12800000000000009;-223363394.0;-166032352.0;-18300532.0;-9757.626944288053;-8428.301918823696;-1089.0961821358487;-256787.92983212724;-57333.333333333336;-199454.59649879392
0.1320000000000001;-266443490.0;-204101944.0;-19261450.0;-10770.023637051328;-9517.398100959545;-1068.471193328509;-253099.17319081887;-65833.33333333333;-187265.83985748555
0.1360000000000001;-313507131.0;-246445421.0;-19998069.0;-11765.909515115147;-10585.869294288053;-1044.0713097632743;-248971.4695159546;-74333.33333333333;-174638.13618262127
0.1400000000000001;-364482735.0;-292965183.0;-20541948.0;-12743.900391443125;-11629.940604051328;-1019.2726750638194;-244497.71908199455;-82583.33333333333;-161914.3857486612
0.1440000000000001;-419288377.0;-343562036.0;-20920699.0;-13701.409823584305;-12649.213279115147;-994.2771693279774;-239377.35803529495;-90833.33333333333;-148544.0247019616
0.1480000000000001;-477821437.0;-398135997.0;-21152380.0;-14633.264519200899;-13643.490448443124;-967.4717151411805;-232963.67390414843;-98750.0;-134213.67390414843
0.1520000000000001;-539944334.0;-456579845.0;-21241592.0;-15530.723460033696;-14610.962163584305;-935.6908116165941;-224364.73520819936;-106583.33333333333;-117781.40187486603
0.1560000000000001;-605471742.0;-518766456.0;-21177878.0;-16381.851143063366;-15546.6529752009;-894.7192388327985;-212781.92075741754;-114000.0;-98781.92075741754
0.16000000000000011;-674156148.0;-584531944.0;-20939798.0;-17171.100713182575;-16441.372214033698;-840.8902430296694;-197312.3925298023;-121333.33333333333;-75979.05919646898
0.16400000000000012;-745668894.0;-653660993.0;-20495155.0;-17878.18559930308;-17282.262457063367;-770.129921119209;-176771.22153012623;-128250.0;-48521.22153012624
0.16800000000000012;-819591486.0;-725870562.0;-19798332.0;-18480.647051208296;-18052.392378182576;-677.1214971205045;-150615.3629763039;-134833.33333333334;-15782.02964297057
0.17200000000000013;-895430760.0;-800788617.0;-18802869.0;-18959.817804063576;-18729.51387530308;-559.6565429052171;-119792.68821381993;-140833.33333333334;21040.645119513414
0.17600000000000013;-972650333.0;-877945298.0;-17485462.0;-19304.892256155472;-19289.170418208298;-422.5222518552764;-86268.61302297402;-146000.0;59731.38697702598
0.18000000000000013;-1050703151.0;-956792068.0;-15858265.0;-19513.203444646828;-19711.692670063574;-275.1049810918994;-52077.797122839;-150333.33333333334;98255.53621049435
0.18400000000000014;-1129060003.0;-1036739258.0;-13963893.0;-19589.212195162894;-19986.797651155473;-126.853192491355;-19002.18762901659;-153583.33333333334;134581.14570431676
0.18800000000000014;-1207232880.0;-1117193861.0;-11866142.0;-19543.21841740157;-20113.65084364683;14.194542483935948;11498.444440330786;-155833.33333333334;167331.77777366413
0.19200000000000014;-1284790301.0;-1197591686.0;-9641194.0;-19389.354267900177;-20099.456301162892;141.66654176132215;38466.037375348606;-156833.33333333334;195299.37070868193
0.19600000000000015;-1361371178.0;-1277422845.0;-7367456.0;-19145.218243745927;-19957.78975940157;251.63488350139232;61034.00603856244;-156666.66666666666;217700.67270522908
0.20000000000000015;-1436702669.0;-1356247464.0;-5123714.0;-18832.871804491093;-19706.154875900178;340.61693015425044;78086.60981370849;-155583.33333333334;233669.94314704183
0.20400000000000015;-1510608489.0;-1433709615.0;-2993054.0;-18476.454239508115;-19365.537945745928;403.96481925483386;89104.39124574441;-153583.33333333334;242687.72457907774
0.20800000000000016;-1582995697.0;-1509555907.0;-1052582.0;-18096.8011512781;-18961.573126491094;439.8578609829783;94913.27205750349;-150916.66666666666;245829.93872417015
0.21200000000000016;-1653827576.0;-1583642768.0;647071.0;-17707.968894245994;-18521.715265508115;452.73816723001437;97208.06425802674;-147250.0;244458.06425802674
0.21600000000000016;-1723096273.0;-1655918676.0;2091100.0;-17317.173396322793;-18068.9770982781;450.9255040321077;97698.87448080044;-142916.66666666666;240615.5411474671
0.22000000000000017;-1790802785.0;-1726390882.0;3294609.0;-16926.627234800475;-17618.051594245993;442.5463849232001;97636.54038057939;-137583.33333333334;235219.87371391273
0.22400000000000017;-1856946011.0;-1795092902.0;4290117.0;-16535.80572504004;-17175.505209322793;433.35300552232;97705.37744010835;-131583.33333333334;229288.7107734417
0.22800000000000017;-1921519134.0;-1862061510.0;5115499.0;-16143.27997306886;-16742.152203800473;426.3129357604321;98131.43799279533;-124583.33333333333;222714.77132612866
0.23200000000000018;-1984510323.0;-1927324867.0;5805733.0;-15747.796407500186;-16315.839268040041;422.20581397118076;98870.89139216869;-116750.0;215620.89139216868
0.23600000000000018;-2045904993.0;-1990899400.0;6389077.0;-15348.666823299865;-15893.63345406886;420.5673575686742;99782.39605008002;-107916.66666666667;207699.0627167467
0.24000000000000019;-2105687895.0;-2052791664.0;6886671.0;-14945.72478647808;-15473.066096500186;420.5261262003205;100735.5092054463;-98333.33333333333;199068.84253877963
0.2440000000000002;-2163844452.0;-2113001823.0;7313928.0;-14539.13857703444;-15052.539970299866;421.3140878217855;101646.55236090993;-88000.0;189646.55236090993
0.2480000000000002;-2220361421.0;-2171526726.0;7682274.0;-14129.241653450401;-14631.22588247808;422.4250874436402;102474.23089600989;-77000.0;179474.2308960099
0.25200000000000017;-2275227044.0;-2228361929.0;8000508.0;-13716.40494930955;-14208.80079503444;423.5809855840398;103209.17603521275;-65500.0;168709.17603521276
0.25600000000000017;-2328430935.0;-2283502808.0;8275764.0;-13300.972100420708;-13785.2198094504;424.6727121408494;103858.21222221057;-53666.666666666664;157524.87888887723
0.2600000000000002;-2379963960.0;-2336944996.0;8514061.0;-12883.255673060563;-13360.54709730955;425.67961988884235;104429.10684003618;-41833.333333333336;146262.4401733695
0.2640000000000002;-2429818101.0;-2388684465.0;8720505.0;-12463.53463973846;-12934.867477420708;426.59351936014536;104930.2583305257;-30083.333333333332;135013.59166385903
0.2680000000000002;-2477986264.0;-2438717560.0;8899459.0;-12042.040311297167;-12508.273958060563;427.4160553221027;105373.58211032324;-18416.666666666668;123790.2487769899
0.2720000000000002;-2524462089.0;-2487040991.0;9054727.0;-11618.95570787349;-12080.85790273846;428.1708524412934;105771.15085591913;-6916.666666666667;112687.8175225858
0.2760000000000002;-2569239762.0;-2533651739.0;9189650.0;-11194.41778109397;-11652.687050297167;428.8862924236764;106134.48169488038;4416.666666666667;101717.8150282137
0.2800000000000002;-2612313814.0;-2578546942.0;9307180.0;-10768.512385261954;-11223.80075787349;429.59171677952145;106476.34895800365;15500.0;90976.34895800365
0.2840000000000002;-2653678918.0;-2621723778.0;9409964.0;-10341.275435563393;-10794.209041093969;430.3251078320154;106809.23742464029;26333.333333333332;80475.90409130696
0.2880000000000002;-2693329744.0;-2663179313.0;9500395.0;-9912.706141912338;-10363.883933261954;431.1254826985605;107142.32341276374;37000.0;70142.32341276374
0.2920000000000002;-2731260879.0;-2702910346.0;9580602.0;-9482.783353017769;-9932.758450563393;432.0181946510547;107480.69722364243;47333.333333333336;60147.363890309105
0.2960000000000002;-2767466792.0;-2740913307.0;9652428.0;-9051.477752674044;-9500.740255912338;433.0113068945702;107826.40008593125;57250.0;50576.40008593125
0.3000000000000002;-2801941834.0;-2777184222.0;9717430.0;-8618.760040066023;-9067.728949017768;434.1006863437251;108179.42815200513;66583.33333333333;41596.0948186718
0.3040000000000002;-2834680254.0;-2811718735.0;9776901.0;-8184.604620835476;-8633.628262674043;435.27496560801956;108538.85480763666;75166.66666666667;33372.188140969985
0.3080000000000002;-2865676212.0;-2844512148.0;9831894.0;-7748.989176631029;-8198.353297066024;436.52011823054727;108903.86105111179;82916.66666666667;25987.194384445116
0.3120000000000002;-2894923784.0;-2875559480.0;9883268.0;-7311.89262007101;-7761.833178835476;437.82452620444656;109274.13914000476;89583.33333333333;19690.805806671437
0.3160000000000002;-2922416945.0;-2904855514.0;9931730.0;-6873.289905064554;-7324.00865263103;439.180422560019;109650.67875161412;95083.33333333333;14567.345418280795
0.32000000000000023;-2948149532.0;-2932394826.0;9977881.0;-6433.14651192584;-6884.828230071011;440.5872080064564;110035.84828467842;99500.0;10535.848284678423
0.32400000000000023;-2972115208.0;-2958171790.0;10022258.0;-5991.418630340123;-6444.241022064554;442.05160413871454;110431.97039642927;102916.66666666667;7515.303729762607
0.32800000000000024;-2994307421.0;-2982180547.0;10065339.0;-5548.053026816947;-6002.18941792584;443.5803645857168;110841.40088079403;105333.33333333333;5508.067547460698
0.33200000000000024;-3014719361.0;-3004414983.0;10107562.0;-5102.984750592054;-5558.609053340123;445.1811925231759;111267.06905622313;106833.33333333333;4433.735722889807
0.33600000000000024;-3033343971.0;-3024868694.0;10149333.0;-4656.152350540901;-5113.427860816947;446.8644292248928;111708.10001278823;107666.66666666667;4041.4333461215647
0.34000000000000025;-3050174137.0;-3043534947.0;10190976.0;-4207.541158116955;-4666.563431592054;448.6230490511525;112152.79810598667;108083.33333333333;4069.4647726533476
0.34400000000000025;-3065203013.0;-3060406708.0;10232571.0;-3757.2188276342513;-4217.940382540902;450.39977742394694;112580.58262067584;108250.0;4330.582620675841
0.34800000000000025;-3078426153.0;-3075476870.0;10273857.0;-3305.784818893389;-3767.540605116955;452.0976284827034;112858.50218521558;108250.0;4608.5021852155705
0.35200000000000026;-3089849884.0;-3088738641.0;10312488.0;-2855.932716401305;-3315.4429766342514;453.09514174086235;112463.02562302105;108250.0;4213.025623021053
0.35600000000000026;-3099505496.0;-3100188032.0;10338148.0;-2413.902963524764;-2862.347834893389;450.95548249208423;110507.43821913522;108333.33333333333;2174.1048858018958
0.36000000000000026;-3107460410.0;-3109833601.0;10328105.0;-1988.7282832192473;-2411.392352401305;441.59790387654084;106293.67007637916;108416.66666666667;-2122.9965902875138
0.36400000000000027;-3113821206.0;-3117712778.0;10252368.0;-1590.198934475672;-1969.794448524764;421.9179893055166;99632.33718589379;108583.33333333333;-8950.996147439539
0.36800000000000027;-3118731162.0;-3123904283.0;10083077.0;-1227.4888998437814;-1547.8764592192474;391.2498357435752;90677.50865797268;108666.66666666667;-17989.15800869399
0.3720000000000003;-3122363524.0;-3128530789.0;9799627.0;-908.0906023523497;-1156.6266234756722;350.5216846318908;79849.57437285791;108750.0;-28900.425627142085
0.3760000000000003;-3124910516.0;-3131755208.0;9391684.0;-636.7479849675286;-806.1049388437814;301.85674849143163;67835.65434620528;108500.0;-40664.34565379473
0.3800000000000003;-3126573172.0;-3133772200.0;8861684.0;-415.6637906974015;-504.24819035234975;248.55261738482108;55271.048567531776;107916.66666666667;-52645.618099134896
0.3840000000000003;-3127556188.0;-3134794982.0;8221810.0;-245.75415612357705;-255.69557296752868;193.56961227012715;42477.40864345612;106916.66666666667;-64439.258023210554
0.3880000000000003;-3128060871.0;-3135043485.0;7487297.0;-126.170561500383;-62.125960697401524;138.32557557382444;29895.89865579851;105500.0;-75604.1013442015
0.3920000000000003;-3128268380.0;-3134738687.0;6677816.0;-51.877403578401115;76.19961487642291;84.77591162319405;18573.28948049547;103750.0;-85176.71051950453
0.3960000000000003;-3128320425.0;-3134094785.0;5826405.0;-13.011249569314902;160.97552649961696;37.68248492198191;9716.538502271553;101500.0;-91783.46149772845
0.4000000000000003;-3128310404.0;-3133300153.0;4979728.0;2.5053774933049446;198.65801142159887;2.4590430090862014;3879.156765654962;98916.66666666667;-95037.50990101171
0.4040000000000003;-3128288261.0;-3132495685.0;4185281.0;5.535605332140528;201.11705443068507;-18.644593937380165;757.5569597088958;95833.33333333333;-95075.77637362444
0.4080000000000003;-3128273370.0;-3131765796.0;3477535.0;3.7228999691063436;182.4724604933049;-27.402850161164395;-453.1763407585461;92500.0;-92953.17634075855
0.4120000000000003;-3128268363.0;-3131145518.0;2872148.0;1.2515732077801074;155.0696103321405;-27.84434636303419;-617.831690331559;89083.33333333333;-89701.16502366489
0.4160000000000003;-3128269550.0;-3130636617.0;2368254.0;-0.29656464270501215;127.22526396910632;-24.13876876132622;-387.0344626212799;85500.0;-85887.03446262128
0.4200000000000003;-3128272740.0;-3130224272.0;1954722.0;-0.7976091142718156;103.0864952077801;-19.330013850485116;-125.26111789170086;82000.0;-82125.2611178917
0.4240000000000003;-3128275411.0;-3129889247.0;1616507.0;-0.6677223759131216;83.75648135729499;-15.044289471566813;32.47168458967351;78416.66666666667;-78384.194982077
0.4280000000000003;-3128276763.0;-3129614399.0;1338988.0;-0.3379693710209492;68.71219188572817;-11.803430261641303;82.43825122304308;74916.66666666667;-74834.22841544363
0.43200000000000033;-3128277013.0;-3129386764.0;1110001.0;-0.0624620696272691;56.90876162408687;-9.516687995107823;68.87682534842003;71416.66666666667;-71347.78984131826
0.43600000000000033;-3128276696.0;-3129197196.0;920183.0;0.07929628874848414;47.39207362897905;-7.886666698606319;35.43958959393831;67833.33333333333;-67797.89374373939
0.44000000000000034;-3128276257.0;-3129039175.0;762479.0;0.10974349744252113;39.50540693037273;-6.639513641624248;7.611802173509246;64416.666666666664;-64409.054864493155
0.44400000000000034;-3128275923.0;-3128907712.0;631455.0;0.08329752088959515;32.86589328874848;-5.603584791305963;-6.611494138231495;60916.666666666664;-60923.2781608049
0.44800000000000034;-3128275743.0;-3128798663.0;522740.0;0.04519628111841666;27.26230849744252;-4.701190976552926;-9.525309942794621;57500.0;-57509.525309942794
0.45200000000000035;-3128275671.0;-3128708419.0;432676.0;0.017969295441105836;22.561117520889592;-3.910853239771175;-6.806746419327707;54000.0;-54006.80674641933
0.45600000000000035;-3128275651.0;-3128633818.0;358147.0;0.005003159979728732;18.650264281118417;-3.231973985677314;-3.241533865344276;50500.0;-50503.241533865345
0.46000000000000035;-3128275649.0;-3128572145.0;296494.0;0.0005428807458886958;15.418290295441103;-2.6640451354613752;-1.115069808460009;47083.333333333336;-47084.448403141796
0.46400000000000036;-3128275655.0;-3128521129.0;245480.0;-0.00161071097489399;12.754245159979728;-2.1980622792338416;-0.5383979301956714;43583.333333333336;-43583.871731263534
0.46800000000000036;-3128275672.0;-3128478905.0;203250.0;-0.004292109718837745;10.556182880745887;-1.818043591720782;-0.6703496859859388;40083.333333333336;-40084.00368301932
0.47200000000000036;-3128275702.0;-3128443953.0;168281.0;-0.007354299304130733;8.738139289025105;-1.5063483987439437;-0.7655473963232469;36500.0;-36500.765547396324
0.47600000000000037;-3128275740.0;-3128415026.0;139324.0;-0.00955012891432511;7.231790890281161;-1.248213189585293;-0.5489574025485944;33000.0;-33000.54895740255
0.48000000000000037;-3128275780.0;-3128391092.0;115352.0;-0.00998434403879077;5.983577700695868;-1.0329918296101939;-0.10855378111641499;29500.0;-29500.108553781116
0.4840000000000004;-3128275814.0;-3128371290.0;95510.0;-0.008650292837706217;4.950585871085674;-0.8536402151244653;0.3335128002711382;25916.666666666668;-25916.333153866395
0.4880000000000004;-3128275839.0;-3128354903.0;79089.0;-0.006264347889540049;4.096945655961209;-0.7047689487989155;0.596486237041542;22416.666666666668;-22416.070180429626
0.4920000000000004;-3128275854.0;-3128341335.0;65496.0;-0.003747601334258155;3.3921767071622932;-0.5821130550518339;0.6291866388204735;18833.333333333332;-18832.704146694512
0.4960000000000004;-3128275861.0;-3128330095.0;54241.0;-0.0017555331340768012;2.8100636521104594;-0.481448253444718;0.49801705004533847;15500.0;-15499.501982949954
0.5000000000000003;-3128275863.0;-3128320781.0;44920.0;-0.0005173218311786009;2.3286153986657414;-0.3988109317998185;0.30955282572455006;12083.333333333334;-12083.023780507609
