Zeit[sec];Sollposition[°];Istposition[°];Positionsschleppfehler[°];Sollgeschwindigkeit[°/s];Istgeschwindigkeit[°/s];Geschwindigkeitsdifferenz[°/s];Sollbeschleunigung[°/s*s];Istbeschleunigung[°/s*s];Beschleunigungsdifferenz[°/s*s]
0.0;0.0;-4.0;4.0;-0.0;0.00023999999999999998;0.0;0.0;0.0;0.0
0.004;0.0;-4.0;4.0;-0.0;0.00023999999999999998;0.0;0.0;0.0;0.0
0.008;0.0;-4.0;4.0;-0.0;0.00023999999999999998;0.0;0.0;0.0;0.0
0.012;0.0;-4.0;4.0;-0.0;0.00023999999999999998;0.0;0.0;0.0;0.0
0.016;0.0;-4.0;4.0;-0.0;0.00023999999999999998;0.0;0.0;0.0;0.0
0.02;0.0;-4.0;4.0;-0.0;0.00023999999999999998;0.0;0.0;0.0;0.0
0.024;0.0;-4.0;4.0;-0.0;0.00023999999999999998;0.0;0.0;0.0;0.0
0.028;0.0;-4.0;4.0;-0.0;0.00023999999999999998;0.0;0.0;0.0;0.0
0.032;0.0;-4.0;4.0;-0.0;0.00023999999999999998;0.0;0.0;0.0;0.0
0.036000000000000004;0.0;-4.0;4.0;-0.0;0.00023999999999999998;0.0;0.0;0.0;0.0
0.04000000000000001;0.0;-4.0;4.0;-0.0;0.00023999999999999998;0.0;0.0;0.0;0.0
0.04400000000000001;0.0;-4.0;4.0;-0.0;0.00023999999999999998;0.0;0.0;0.0;0.0
0.048000000000000015;0.0;-4.0;4.0;-0.0;0.00023999999999999998;0.0;0.0;0.0;0.0
0.05200000000000002;3432.0;-4.0;4.0;0.8582496442147257;0.00023999999999999998;0.0;214.56241105368142;0.0;214.56241105368142
0.05600000000000002;37645.0;-4.0;3436.0;8.553035199921153;0.00023999999999999998;1.0641696442147257;1923.6963889266067;0.0;1923.6963889266067
0.060000000000000026;205804.0;4253.0;33392.0;42.03990238043228;1.0644096442147257;9.492145555706427;8371.716795127782;0.0;8371.716795127782
0.06400000000000003;761405.0;46479.0;159325.0;138.90028648453625;10.556555199921153;41.04284718051113;24215.096026025993;0.0;24215.096026025993
0.06800000000000003;2169547.0;252876.0;508529.0;352.03536388454796;51.59940238043228;117.81262410410397;53283.76935000293;83.33333333333333;53200.43601666959
0.07200000000000004;5110667.0;930524.0;1239023.0;735.2799333132632;169.41202648453626;256.96471740001175;95811.1423571788;583.3333333333334;95227.80902384548
0.07600000000000004;10414253.0;2636030.0;2474637.0;1325.8963994931962;426.376743884548;457.3814094287152;147654.11654498326;1666.6666666666667;145987.44987831658
0.08000000000000004;18973902.0;6171062.0;4243191.0;2139.9121457859205;883.7581533132632;696.7297061799329;203503.93657318107;3916.6666666666665;199587.2699065144
0.08400000000000005;31703555.0;12493013.0;6480889.0;3182.413135762378;1580.487859493196;948.2776262927246;260625.24749411433;7500.0;253125.24749411433
0.08800000000000005;49525965.0;22608074.0;9095481.0;4455.602286976167;2528.7654857859206;1199.3765099764569;318297.2878034474;13000.0;305297.2878034474
0.09200000000000005;73342413.0;37520641.0;12005324.0;5954.111690266988;3728.1419957623775;1447.77973121379;374627.35082270525;20416.666666666668;354210.68415603857
0.09600000000000006;103972161.0;58224327.0;15118086.0;7657.436680556461;5175.9217269761675;1685.2751232908204;425831.2475723683;29750.0;396081.2475723683
0.10000000000000006;142096377.0;85669114.0;18303047.0;9531.053562992873;6861.196850266988;1894.4226502894744;468404.2206091028;41083.333333333336;427320.8872757695
0.10400000000000006;188222597.0;120691592.0;21404785.0;11531.554518123294;8755.619500556462;2059.72116243641;500125.2387826053;54083.333333333336;446041.9054492719
0.10800000000000007;242662512.0;163952954.0;24269643.0;13609.97812222755;10815.340662992872;2172.3924351304213;519605.9010260642;68833.33333333333;450772.56769273087
0.11200000000000007;305530834.0;215903886.0;26758626.0;15717.07980404559;12987.733098123294;2227.7625841042573;526775.4204545099;84750.0;442025.4204545099
0.11600000000000008;376765548.0;276765868.0;28764966.0;17808.677594960485;15215.49568222755;2227.4820818180397;522899.44772872375;101666.66666666667;421232.7810620571
0.12000000000000008;456152885.0;346537779.0;30227769.0;19846.83331907957;17442.97776404559;2179.365970914896;509538.93102977145;118916.66666666667;390622.26436310477
0.12400000000000008;543349286.0;425027153.0;31125732.0;21799.09902200086;19622.343734960486;2092.0335041190847;488066.42573032243;136166.66666666666;351899.75906365574
0.12800000000000009;637890935.0;511884661.0;31464625.0;23635.41114279566;21714.37723907957;1972.5992829212882;459078.0301986997;153083.33333333334;305994.69686536636
0.1320000000000001;739185439.0;606632567.0;31258368.0;25323.624855573154;23686.97652200086;1823.9367007947985;422053.42819437373;169333.33333333334;252720.0948610404
0.1360000000000001;846508856.0;708676219.0;30509220.0;26830.853019172202;25510.913222795658;1643.264832777495;376807.0408997619;184666.66666666666;192140.37423309524
0.1400000000000001;959031901.0;817292931.0;29215925.0;28130.75995370876;27154.178055573153;1429.630463599049;324976.73363413924;198833.33333333334;126143.4003008059
0.1440000000000001;1075867419.0;931628165.0;27403736.0;29208.87813020215;28583.808519172202;1191.1755945365549;269529.5441233475;211583.33333333334;57946.210790014135
0.1480000000000001;1196119707.0;1050728101.0;25139318.0;30063.070415204173;29774.984113708757;942.2530964933903;213548.07125050592;222666.66666666666;-9118.59541616073
0.1520000000000001;1318932634.0;1173597049.0;22522658.0;30703.230492865572;30717.237210202147;697.1926850020245;160040.01941534987;231916.66666666666;-71876.64725131677
0.1560000000000001;1443535179.0;1299254768.0;19677866.0;31150.634704206597;31414.42989520417;469.47255766140006;111851.05283525627;239333.33333333334;-127482.28049807707
0.16000000000000011;1569271948.0;1426790377.0;16744802.0;31434.190767178723;31883.902452865572;271.4203713410243;70889.01574303146;244833.33333333334;-173944.3175903019
0.16400000000000012;1695621969.0;1555411668.0;13860280.0;31587.503583845646;32155.322824206596;110.4847429721267;38328.20416673076;248583.33333333334;-210255.1291666026
0.16800000000000012;1822216273.0;1684474898.0;11147071.0;31648.57457739917;32265.807567178723;-9.479723333075526;15267.748388380824;250750.0;-235482.25161161917
0.17200000000000013;1948839711.0;1813500209.0;8716064.0;31655.857992862562;32256.327843845647;-84.78942644647759;1820.8538658482212;251750.0;-249929.1461341518
0.17600000000000013;2075402088.0;1942186362.0;6653349.0;31640.592810981554;32171.53841739917;-116.47948453660865;-3816.2954702520437;251833.33333333334;-255649.6288035854
0.18000000000000013;2201891094.0;2070406597.0;4995491.0;31622.249901760777;32055.05893286256;-114.73666188100833;-4585.727305194268;251333.33333333334;-255919.06063852762
0.18400000000000014;2328328531.0;2198167886.0;3723208.0;31609.357823837938;31940.322270981553;-94.67988922077711;-3223.0194807098087;250500.0;-253723.0194807098
0.18800000000000014;2454741413.0;2325550455.0;2778076.0;31603.21903752858;31845.642381760776;-69.59999792283634;-1534.6965773396732;249583.33333333334;-251118.029910673
0.19200000000000014;2581148826.0;2452654624.0;2086789.0;31601.851641264468;31776.04238383794;-47.61600630935936;-341.84906602786214;248833.33333333334;-249175.18239936122
0.19600000000000015;2707559734.0;2579568329.0;1580497.0;31602.72563043609;31728.42637752858;-31.74491626411327;218.49729290534015;248083.33333333334;-247864.836040428
0.20000000000000015;2833975910.0;2706355054.0;1204680.0;31604.042557497298;31696.681461264467;-21.675030828377203;329.231765302211;247333.33333333334;-247004.10156803112
0.20400000000000015;2960395774.0;2833055079.0;920831.0;31604.964464880195;31675.00643043609;-15.714012938791711;230.47684572429716;245916.66666666666;-245686.18982094235
0.20800000000000016;3086815516.0;2959692248.0;703526.0;31604.93400434891;31659.292417497298;-12.116392617102974;-7.615132821229054;243666.66666666666;-243674.2817994879
0.21200000000000016;3213223111.0;3086280952.0;534564.0;31601.897149482043;31647.176024880195;-10.168180531283724;-759.2137167166584;239750.0;-240509.21371671665
0.21600000000000016;3339586054.0;3212828983.0;394128.0;31590.734374948155;31637.00784434891;-11.463014866869344;-2790.693633472074;234250.0;-237040.69363347208
0.22000000000000017;3465839068.0;3339331162.0;254892.0;31563.25191247574;31625.54482948204;-19.51693453388725;-6870.615618104239;226750.0;-233620.61561810423
0.22400000000000017;3591871470.0;3465755273.0;83795.0;31508.098936519902;31606.027894948154;-37.748282472417486;-13788.243988959039;217333.33333333334;-231121.57732229237
0.22800000000000017;3717512682.0;3592028391.0;-156921.0;31410.301586892056;31568.279612475737;-69.59593595583647;-24449.337406961604;205833.33333333334;-230282.67074029494
0.23200000000000018;3842525267.0;3718023125.0;-510443.0;31253.14484185631;31498.6836765199;-119.00866962784494;-39289.18625893675;192416.66666666666;-231705.8529256034
0.23600000000000018;3966612609.0;3843541825.0;-1016558.0;31021.833981427993;31379.675006892056;-187.5236450357479;-57827.7151070788;177083.33333333334;-234911.04844041215
0.24000000000000019;4089435592.0;3968310430.0;-1697821.0;30705.744258268413;31192.151361856308;-272.1866404283137;-79022.43078989522;160166.66666666666;-239189.09745656187
0.2440000000000002;4210631483.0;4091990288.0;-2554696.0;30298.971202242425;30919.964721427994;-367.5022231595831;-101693.26400649697;141833.33333333334;-243526.5973398303
0.2480000000000002;4329834287.0;4214200137.0;-3568654.0;29800.69972057046;30552.46249826841;-467.6105360259862;-124567.8704179909;122500.0;-247067.8704179909
0.25200000000000017;4446694611.0;4334539544.0;-4705257.0;29215.07962020998;30084.851962242425;-566.4676616719626;-146405.02509012003;102333.33333333333;-248738.35842345335
0.25600000000000017;4560894647.0;4452613081.0;-5918470.0;28550.00758538824;29518.384300570462;-658.4128803604799;-166268.00870543503;81666.66666666667;-247934.6753721017
0.2600000000000002;4672161224.0;4568052966.0;-7158319.0;27816.642925260483;28859.971420209982;-739.4629748217412;-183341.16503193945;61000.0;-244341.16503193945
0.2640000000000002;4780280054.0;4680534999.0;-8373775.0;27029.70631902214;28120.50844538824;-806.2920201277593;-196734.15155958536;40583.333333333336;-237317.4848929187
0.2680000000000002;4885102483.0;4789791864.0;-9511810.0;26205.60580395792;27314.21642526048;-855.2187062383418;-206025.1287660558;20750.0;-226775.1287660558
0.2720000000000002;4986537755.0;4895627854.0;-10525371.0;25358.816780161054;26458.99771902214;-884.914175064223;-211697.25594921602;1666.6666666666667;-213363.92261588268
0.2760000000000002;5084536342.0;4997924188.0;-11386433.0;24499.645772140797;25574.083543957917;-898.4527437968609;-214792.75200506437;-16083.333333333334;-198709.41867173102
0.2800000000000002;5179072737.0;5096626711.0;-12090369.0;23634.09756344307;24675.630800161056;-901.4071680202578;-216387.05217443203;-32250.0;-184137.05217443203
0.2840000000000002;5270132396.0;5191723605.0;-12650868.0;22764.913570036017;23774.223632140798;-899.1781486977306;-217295.99835176306;-46583.333333333336;-170712.66501842972
0.2880000000000002;5357704319.0;5283223786.0;-13091390.0;21892.979715095455;22875.045483443067;-895.6153134070519;-217983.4637351405;-59083.333333333336;-158900.13040180717
0.2920000000000002;5441778050.0;5371141506.0;-13437187.0;21018.431725402876;21979.430170036016;-892.6816749405625;-218636.99742314476;-69833.33333333333;-148803.6640898114
0.2960000000000002;5522342884.0;5455488499.0;-13710449.0;20141.207674959292;21086.748495095453;-890.9437096925758;-219306.0126108958;-79000.0;-140306.0126108958
0.3000000000000002;5599387819.0;5536271718.0;-13928834.0;19261.23287859594;20195.804785402877;-890.3271504435834;-219993.69909083817;-87000.0;-132993.69909083817
0.3040000000000002;5672901643.0;5613493628.0;-14105809.0;18378.455043073332;19305.477634959294;-890.5932963633531;-220694.45888065183;-94000.0;-126694.45888065183
0.3080000000000002;5742872974.0;5687153165.0;-14251522.0;17492.831881600727;18414.88433859594;-891.5206155226078;-221405.79036815144;-100500.0;-120905.79036815143
0.3120000000000002;5809290232.0;5757246619.0;-14373645.0;16604.313727380784;17523.363723073333;-892.9505414726045;-222129.53855498563;-106583.33333333333;-115546.2052216523
0.3160000000000002;5872141597.0;5823768271.0;-14478039.0;15712.8405316203;16630.41318160073;-894.7817942199435;-222868.2989401209;-112750.0;-110118.29894012089
0.32000000000000023;5931414991.0;5886710796.0;-14569199.0;14818.34769792621;15735.631387380785;-896.9427957604839;-223623.20842352256;-118916.66666666667;-104706.54175685588
0.32400000000000023;5987098075.0;5946065550.0;-14650559.0;13920.770371654851;14838.688591620301;-899.3744336940908;-224394.3315678398;-125416.66666666667;-98977.66490117312
0.32800000000000024;6039178256.0;6001822806.0;-14724731.0;13020.044613281883;13939.31415792621;-902.0276462713591;-225181.439593242;-132000.0;-93181.43959324197
0.33200000000000024;6087642650.0;6053971952.0;-14793696.0;12116.098044702097;13037.286511654851;-904.8636583729676;-225986.64214494647;-138750.0;-87236.64214494647
0.33600000000000024;6132477999.0;6102501643.0;-14858993.0;11208.836801141093;12132.422853281883;-907.8643885797865;-226815.3108902511;-145583.33333333334;-81231.97755691777
0.34000000000000025;6173670590.0;6147399876.0;-14921877.0;10298.147094496804;11224.558464702097;-911.0342835610045;-227672.4266610722;-152583.33333333334;-75089.09332773888
0.34400000000000025;6211206189.0;6188653972.0;-14983382.0;9383.89933236041;10313.524181141092;-914.3800066442891;-228561.94053409854;-159583.33333333334;-68978.6072007652
0.34800000000000025;6245069976.0;6226250548.0;-15044359.0;8465.94633839379;9399.144174496803;-917.9063821363925;-229488.24849165522;-166583.33333333334;-62904.91515832187
0.35200000000000026;6275248859.0;6260175499.0;-15105523.0;7544.720306907416;8481.23779236041;-921.6228339666213;-230306.50787159335;-173583.33333333334;-56723.17453826
0.35600000000000026;6301741982.0;6290413958.0;-15165099.0;6623.280665449905;7559.6149583937895;-924.8005914863734;-230359.91036437757;-180583.33333333334;-49776.57703104424
0.36000000000000026;6324578779.0;6316953215.0;-15211233.0;5709.198964054467;6634.814366907416;-924.2076814575103;-228520.4253488596;-187500.0;-41020.425348859586
0.36400000000000027;6343835627.0;6339795641.0;-15216862.0;4814.211776362355;5710.606685449906;-914.4194413954392;-223746.7969230281;-194166.66666666666;-29580.13025636146
0.36800000000000027;6359650310.0;6358980389.0;-15144762.0;3953.670471063666;4796.187244054467;-890.661187692112;-215135.32632467218;-200333.33333333334;-14801.992991338835
0.3720000000000003;6372236927.0;6374602493.0;-14952183.0;3146.6539632620443;3905.5260563623547;-848.9865652986887;-201754.12695040542;-206000.0;4245.873049594593
0.3760000000000003;6381891149.0;6386828650.0;-14591723.0;2413.55554008442;3056.539491063666;-785.3889078016218;-183274.60579440606;-210666.66666666666;27392.0608722606
0.3800000000000003;6388977159.0;6395913252.0;-14022103.0;1771.5024120077621;2271.150583262044;-698.9212231776241;-160513.28201916447;-214416.66666666666;53903.38464750218
0.3840000000000003;6393903319.0;6402202169.0;-13225010.0;1231.53984707403;1572.22936008442;-594.2275480766579;-134990.64123343304;-216750.0;81759.35876656695
0.3880000000000003;6397096331.0;6406114176.0;-12210857.0;798.2530085657334;978.0018120077622;-479.11338493373216;-108321.70962707415;-217833.33333333334;109511.6237062592
0.3920000000000003;6398974905.0;6408109729.0;-11013398.0;469.643531303998;498.88842707403;-361.4392985082966;-82152.36931543384;-217333.33333333334;135180.9640178995
0.3960000000000003;6399924530.0;6408659525.0;-9684620.0;237.40632106394077;137.44912856573342;-248.8827972617354;-58059.3025600143;-215333.33333333334;157274.03077331904
0.4000000000000003;6400279783.0;6408213791.0;-8289261.0;88.81304641065118;-111.43366869600197;-148.5156702400572;-37148.318663322396;-211833.33333333334;174685.01467001095
0.4040000000000003;6400311706.0;6407173994.0;-6894211.0;7.9809188373625854;-259.9493389360592;-64.89027465328962;-20208.03189332215;-207250.0;187041.96810667784
0.4080000000000003;6400215107.0;6405874636.0;-5562930.0;-24.14984124762661;-324.8396135893488;-0.9552675732885518;-8032.690021247299;-201583.33333333334;193550.64331208603
0.4120000000000003;6400104600.0;6404571457.0;-4356350.0;-27.62675553607774;-325.79488116263735;40.264039915010756;-869.2285721127826;-195166.66666666666;194297.4380945539
0.4160000000000003;6400028202.0;6403429334.0;-3324734.0;-19.09941504803068;-285.5308412476266;58.42004571154885;2131.8351220117656;-188166.66666666666;190298.50178867843
0.4200000000000003;6399991971.0;6402520891.0;-2492689.0;-9.057787102099518;-227.11079553607775;58.45004048804711;2510.40698648279;-180916.66666666666;183427.07365314945
0.4240000000000003;6399983618.0;6401846248.0;-1854277.0;-2.0883017676748783;-168.66075504803064;48.34634794593114;1742.3713336061599;-173500.0;175242.37133360616
0.4280000000000003;6399988244.0;6401364991.0;-1381373.0;1.156536062001643;-120.3144071020995;35.34372533442462;811.2094574191303;-166083.33333333334;166894.5427907525
0.43200000000000033;6399995455.0;6401025109.0;-1036865.0;1.8026185622399762;-84.97068176767488;23.915317829676525;161.52062505958332;-158750.0;158911.52062505958
0.43600000000000033;6400000468.0;6400780888.0;-785433.0;1.2534860305303868;-61.05536393799835;15.73200250023833;-137.28313292739736;-151500.0;151362.7168670726
0.44000000000000034;6400002446.0;6400599595.0;-599127.0;0.4942677675936681;-45.32336143776002;10.629227468290416;-189.80456573417968;-144333.33333333334;144143.52876759917
0.44400000000000034;6400002345.0;6400460819.0;-458373.0;-0.02511920953021196;-34.694133969469604;7.686021737063275;-129.84674428097;-137250.0;137120.15325571902
0.44800000000000034;6400001414.0;6400352787.0;-350442.0;-0.23266229020244714;-27.00811223240633;5.956473022876121;-51.88577016805879;-130250.0;130198.11422983195
0.45200000000000035;6400000503.0;6400268581.0;-267167.0;-0.22785499296749662;-21.051639209530208;4.788956919327763;1.20182430873763;-123166.66666666667;123167.86849097541
0.45600000000000035;6399999965.0;6400203531.0;-203028.0;-0.13441725304779795;-16.262682290202445;3.8531472972349494;23.359434979924668;-116083.33333333333;116106.69276831325
0.46000000000000035;6399999830.0;6400153893.0;-153928.0;-0.03391275428031018;-12.409534992967496;3.0394377399196983;25.12612469187194;-109000.0;109025.12612469187
0.46400000000000036;6399999991.0;6400116413.0;-116583.0;0.04024425492286639;-9.370097253047797;2.341204498767488;18.539252300794143;-101916.66666666667;101935.20591896746
0.46800000000000036;6400000317.0;6400088298.0;-88307.0;0.08166799508444852;-7.028892754280309;1.7707170092031763;10.355935040395535;-94833.33333333333;94843.68926837372
0.47200000000000036;6400000684.0;6400067266.0;-66949.0;0.0916371827089454;-5.258175745077133;1.3229037401615815;2.492296906124219;-87750.0;87752.49229690613
0.47600000000000037;6400000979.0;6400051525.0;-50841.0;0.07376152683953781;-3.9352720049155514;0.976449187624497;-4.468913967351898;-80666.66666666667;80662.19775269931
0.48000000000000037;6400001126.0;6400039690.0;-38711.0;0.03676600252398101;-2.9588228172910545;0.7099243441305925;-9.2488810788892;-73500.0;73490.7511189211
0.4840000000000004;6400001103.0;6400030695.0;-29569.0;-0.005688720495293458;-2.248898473160462;0.5115244756844433;-10.613680754818617;-66250.0;66239.38631924518
0.4880000000000004;6400000942.0;6400023746.0;-22643.0;-0.04030354453042276;-1.7373739974760187;0.37310527698072526;-8.653706008782326;-59083.333333333336;59074.679627324556
0.4920000000000004;6400000705.0;6400018289.0;-17347.0;-0.05923115608854047;-1.3642687204952935;0.2831451759648709;-4.731902889529427;-51833.333333333336;51828.60143044381
0.4960000000000004;6400000459.0;6400013965.0;-13260.0;-0.06148403344461247;-1.0811235445304226;0.22629238844188215;-0.5632193390180014;-44666.666666666664;44666.103447327645
0.5000000000000003;6400000254.0;6400010546.0;-10087.0;-0.05134888397583084;-0.8548311560885404;0.18812712264392795;2.5337873671954085;-37500.0;37502.533787367196
0.5040000000000003;6400000112.0;6400007880.0;-7626.0;-0.03552545191050348;-0.6667040334446125;0.1577951494687817;3.95585801633184;-30666.666666666668;30670.622524683
