Zeit[sec];Sollposition[°];Istposition[°];Positionsschleppfehler[°];Sollgeschwindigkeit[°/s];Istgeschwindigkeit[°/s];Geschwindigkeitsdifferenz[°/s];Sollbeschleunigung[°/s*s];Istbeschleunigung[°/s*s];Beschleunigungsdifferenz[°/s*s]
0.0;0.0;5.0;-5.0;-0.0;-0.00021499999999999997;0.0;0.0;0.0;0.0
0.004;0.0;5.0;-5.0;-0.0;-0.00021499999999999997;0.0;0.0;0.0;0.0
0.008;0.0;5.0;-5.0;-0.0;-0.00021499999999999997;0.0;0.0;0.0;0.0
0.012;0.0;5.0;-5.0;-0.0;-0.00021499999999999997;0.0;0.0;0.0;0.0
0.016;0.0;5.0;-5.0;-0.0;-0.00021499999999999997;0.0;0.0;0.0;0.0
0.02;0.0;5.0;-5.0;-0.0;-0.00021499999999999997;0.0;0.0;0.0;0.0
0.024;0.0;5.0;-5.0;-0.0;-0.00021499999999999997;0.0;0.0;0.0;0.0
0.028;0.0;5.0;-5.0;-0.0;-0.00021499999999999997;0.0;0.0;0.0;0.0
0.032;0.0;5.0;-5.0;-0.0;-0.00021499999999999997;0.0;0.0;0.0;0.0
0.036000000000000004;0.0;5.0;-5.0;-0.0;-0.00021499999999999997;0.0;0.0;0.0;0.0
0.04000000000000001;0.0;5.0;-5.0;-0.0;-0.00021499999999999997;0.0;0.0;0.0;0.0
0.04400000000000001;0.0;5.0;-5.0;-0.0;-0.00021499999999999997;0.0;0.0;0.0;0.0
0.048000000000000015;-1316.0;5.0;-5.0;-0.3292491658036377;-0.00021499999999999997;0.0;-82.31229145090943;0.0;-82.31229145090943
0.05200000000000002;-14441.0;5.0;-1321.0;-3.2811894809928077;-0.00021499999999999997;-0.3858371658036377;-737.9850787972925;0.0;-737.9850787972925
0.05600000000000002;-78952.0;-1539.0;-12902.0;-16.12771165421021;-0.3860521658036377;-3.44992331518917;-3211.6305433043503;0.0;-3211.6305433043503
0.060000000000000026;-292153.0;-16882.0;-62070.0;-53.30033065037135;-3.8359754809928077;-14.960746173217402;-9293.154749040285;0.0;-9293.154749040285
0.06400000000000003;-832838.0;-92068.0;-200085.0;-135.17106174299113;-18.79672165421021;-43.107263996161144;-20467.682773154946;0.0;-20467.682773154946
0.06800000000000003;-1963154.0;-339683.0;-493155.0;-282.5790213607204;-61.903985650371354;-94.47274109261978;-36851.98990443232;-166.66666666666666;-36685.323237765646
0.07200000000000004;-4003578.0;-965189.0;-997965.0;-510.10606030259436;-156.37672674299114;-169.11478961772923;-56881.75973546849;-583.3333333333334;-56298.426402135156
0.07600000000000004;-7300676.0;-2267155.0;-1736423.0;-824.2744135483042;-325.49151636072037;-259.28073294187396;-78542.08831142746;-1416.6666666666667;-77125.42164476079
0.08000000000000004;-12210669.0;-4606243.0;-2694433.0;-1227.4982255225723;-584.7722493025943;-355.3627832457099;-100805.95299356701;-2750.0;-98055.95299356701
0.08400000000000005;-19095243.0;-8366783.0;-3843886.0;-1721.143387064927;-940.1350325483043;-452.65029097426805;-123411.2903855887;-4833.333333333333;-118577.95705225537
0.08800000000000005;-28310087.0;-13937924.0;-5157319.0;-2303.7109964399788;-1392.7853235225723;-550.1227805423548;-145641.90234376292;-7583.333333333333;-138058.56901042958
0.09200000000000005;-40181898.0;-21709556.0;-6600531.0;-2967.952455767081;-1942.908104064927;-644.6257253750518;-166060.3648317756;-11166.666666666666;-154893.69816510892
0.09600000000000006;-54987206.0;-32059691.0;-8122207.0;-3701.326758157761;-2587.533829439979;-729.673527327102;-183343.57559767;-15416.666666666666;-167926.90893100333
0.10000000000000006;-72939716.0;-45328520.0;-9658686.0;-4488.127307756363;-3317.207356767081;-799.4428993906799;-196700.13739965044;-20500.0;-176200.13739965044
0.10400000000000006;-94183486.0;-61795121.0;-11144595.0;-5310.942275909207;-4116.650256157761;-850.6946365986023;-205703.74203821097;-26083.333333333332;-179620.40870487766
0.10800000000000007;-118795401.0;-81664500.0;-12518986.0;-6152.978476965639;-4967.344892756363;-881.9137811528435;-210509.05026410805;-32333.333333333332;-178175.7169307747
0.11200000000000007;-146800468.0;-105061534.0;-13733867.0;-7001.266404859359;-5849.258673909207;-894.2760840564324;-212071.98197342997;-38833.333333333336;-173238.64864009662
0.11600000000000008;-178193573.0;-132035673.0;-14764795.0;-7848.275928434179;-6743.534757965639;-892.61783189372;-211752.3808937051;-45750.0;-166002.3808937051
0.12000000000000008;-212958516.0;-162580283.0;-15613290.0;-8691.235288389025;-7636.152589859359;-883.4948085748201;-210739.83998871152;-52666.666666666664;-158073.17332204487
0.12400000000000008;-251079896.0;-196658872.0;-16299644.0;-9530.344659094471;-8519.64739843418;-872.4725819548457;-209777.3426763615;-59666.666666666664;-150110.67600969484
0.12800000000000009;-292548113.0;-234227351.0;-16852545.0;-10367.053609583685;-9392.119980389025;-862.884113705446;-209177.23762230342;-66500.0;-142677.23762230342
0.1320000000000001;-337359450.0;-275247367.0;-17300746.0;-11202.833882270626;-10255.004094094471;-855.981593489214;-208945.06817173533;-73333.33333333333;-135611.73483840202
0.1360000000000001;-385513028.0;-319691309.0;-17668141.0;-12038.393821218824;-11110.985687583685;-851.5782576869406;-208889.9847370494;-80083.33333333333;-128806.6514037161
0.1400000000000001;-437006535.0;-367541564.0;-17971464.0;-12873.376269676075;-11962.563945270625;-848.602827948198;-208745.61211431274;-86833.33333333333;-121912.27878097941
0.1440000000000001;-491830068.0;-418786231.0;-18220304.0;-13705.8825402037;-12811.166773218823;-845.6825684572523;-208126.56763190625;-93416.66666666667;-114709.90096523959
0.1480000000000001;-549951722.0;-473413628.0;-18416440.0;-14530.412861520745;-13656.849341676076;-840.9401185276238;-206132.58032926114;-100083.33333333333;-106049.24699592782
0.1520000000000001;-611295131.0;-531404785.0;-18546937.0;-15335.851436617604;-14497.7894602037;-830.1416923170455;-201359.64377421487;-106666.66666666667;-94692.9771075482
0.1560000000000001;-675722842.0;-592716509.0;-18578622.0;-16106.927028738957;-15327.931152520745;-806.8010300968599;-192768.89803033829;-113250.0;-79518.89803033829
0.16000000000000011;-743034234.0;-657255437.0;-18467405.0;-16827.847197558793;-16134.732182617605;-766.293261121351;-180230.04220495885;-119666.66666666667;-60563.375538292195
0.16400000000000012;-812973245.0;-724859538.0;-18174696.0;-17484.75182052294;-16901.025443738956;-708.3336818198368;-164226.15574103658;-125916.66666666667;-38309.48907436989
0.16800000000000012;-885240563.0;-795296974.0;-17676271.0;-18066.828736217372;-17609.359125558793;-635.472347964147;-145519.22892360835;-131916.66666666666;-13602.562256941696
0.17200000000000013;-959506886.0;-868276299.0;-16964264.0;-18566.57973790853;-18244.83147352294;-551.4606146944316;-124937.75042278957;-137416.66666666666;12478.91624387708
0.17600000000000013;-1035423537.0;-943461467.0;-16045419.0;-18979.162039780622;-18796.29208821737;-460.2406666911593;-103145.5754680228;-142333.33333333334;39187.757865310545
0.18000000000000013;-1112633006.0;-1020487598.0;-14935939.0;-19302.366132408944;-19256.53275490853;-364.87466187209066;-80801.02315708064;-146583.33333333334;65782.31017625271
0.18400000000000014;-1190788833.0;-1098973227.0;-13659779.0;-19538.955856611225;-19621.40741678062;-268.32921262832315;-59147.43105057005;-150166.66666666666;91019.23561609662
0.18800000000000014;-1269584564.0;-1178532173.0;-12256660.0;-19698.931874389033;-19889.736629408944;-176.25560720228168;-39994.004444452;-153083.33333333334;113089.32888888134
0.19200000000000014;-1348775580.0;-1258796141.0;-10788423.0;-19797.75314511451;-20065.992236611226;-96.841826777807;-24705.317681369706;-155083.33333333334;130378.01565196364
0.19600000000000015;-1428183810.0;-1339447477.0;-9328103.0;-19852.056382377556;-20162.834063389033;-36.02751072547835;-13575.809315761035;-156333.33333333334;142757.52401757232
0.20000000000000015;-1507690427.0;-1420242923.0;-7940887.0;-19876.653345428957;-20198.86157411451;5.347050736956589;-6149.240762850241;-156750.0;150600.75923714976
0.20400000000000015;-1587222407.0;-1501016981.0;-6673446.0;-19882.993995794837;-20193.514523377555;29.902999948597426;-1585.16259147018;-156250.0;154664.83740852983
0.20800000000000016;-1666736012.0;-1581671427.0;-5550980.0;-19878.400369245566;-20163.611523428957;41.92538763412085;1148.4066373177484;-154916.66666666666;156065.07330398442
0.21200000000000016;-1746201599.0;-1662158171.0;-4577841.0;-19866.395882686975;-20121.686135794836;46.43860354927165;3001.121639647863;-152666.66666666666;155667.78830631453
0.21600000000000016;-1825590588.0;-1742459161.0;-3742438.0;-19847.246206905183;-20075.247532245565;47.926815558588714;4787.4189454478255;-149666.66666666666;154454.0856121145
0.22000000000000017;-1904858733.0;-1822568443.0;-3022145.0;-19817.035435540634;-20027.320716686976;50.12227478179193;7552.692841137286;-145750.0;153302.6928411373
0.22400000000000017;-1983924989.0;-1902477236.0;-2381497.0;-19766.563008733505;-19977.198441905184;57.758635364549264;12618.10670178238;-141000.0;153618.10670178238
0.22800000000000017;-2062655708.0;-1982154995.0;-1769994.0;-19682.678903870383;-19919.439806540635;76.76705580712951;20971.026215780512;-135583.33333333334;156554.35954911384
0.23200000000000018;-2140858105.0;-2061525686.0;-1130022.0;-19550.59816749885;-19842.672750733505;111.40290086312234;33020.18409288303;-129416.66666666667;162436.8507595497
0.23600000000000018;-2218278795.0;-2140450765.0;-407340.0;-19355.171677799364;-19731.269849870383;163.15606237153406;48856.6224248716;-122666.66666666667;171523.2890915383
0.24000000000000019;-2294608337.0;-2218723220.0;444425.0;-19082.384674706816;-19568.11378749885;232.0523846994838;68196.75077313696;-115083.33333333333;183280.08410647028
0.2440000000000002;-2369493185.0;-2296067465.0;1459128.0;-18721.21096615758;-19336.061402799365;316.4192320925504;90293.42713730875;-107000.0;197293.42713730875
0.2480000000000002;-2442550337.0;-2372146033.0;2652848.0;-18264.287132730653;-19019.642170706815;412.50366854923413;114230.95835673212;-98166.66666666667;212397.62502339878
0.25200000000000017;-2513381492.0;-2446574587.0;4024250.0;-17707.787825434803;-18607.13850215758;515.8941194269282;139124.8268239624;-88750.0;227874.8268239624
0.25600000000000017;-2581588721.0;-2518939564.0;5558072.0;-17051.806543932857;-18091.244382730652;622.4536532958482;163995.32037548668;-78583.33333333333;242578.65370882003
0.2600000000000002;-2646791067.0;-2588814726.0;7226005.0;-16300.585853581291;-17468.790729434804;727.7024005019484;187805.1725878913;-67666.66666666667;255471.839254558
0.2640000000000002;-2708636246.0;-2655779079.0;8988012.0;-15461.29386539604;-16741.088328932856;826.9869913515649;209822.99704631304;-56083.333333333336;265906.3303796464
0.2680000000000002;-2766805721.0;-2719435484.0;10799238.0;-14542.368089351135;-15914.10133758129;917.1747061852511;229731.4440112259;-43750.0;273481.4440112259
0.2720000000000002;-2821016091.0;-2779423190.0;12617469.0;-13552.591876398963;-14996.92663139604;997.1097090449039;247444.05323804313;-30666.666666666668;278110.7199047098
0.2760000000000002;-2871017529.0;-2835422457.0;14406366.0;-12500.358941436083;-13999.816922351136;1066.6987839521735;263058.23374071997;-16916.666666666668;279974.90040738665
0.2800000000000002;-2916590995.0;-2887154929.0;16137400.0;-11393.36598014387;-12933.118138398962;1126.6673969628791;276748.2403230533;-2500.0;279248.2403230533
0.2840000000000002;-2957546840.0;-2934380731.0;17789736.0;-10238.960621936101;-11806.450741436083;1178.0434092922133;288601.33955194213;12333.333333333334;276268.0062186088
0.2880000000000002;-2993729327.0;-2976894360.0;19347520.0;-9045.621481532624;-10628.40733214387;1221.390070207768;298334.78510086937;27583.333333333332;270751.451767536
0.2920000000000002;-3025040822.0;-3014522429.0;20793102.0;-7827.873168118748;-9407.017261936102;1255.4991664034778;304437.0783534689;43083.333333333336;261353.74502013557
0.2960000000000002;-3051485435.0;-3047128501.0;22087679.0;-6611.153040697604;-8151.518095532624;1273.4151244138757;304180.031855286;58500.0;245680.03185528595
0.3000000000000002;-3073202246.0;-3074640912.0;23155477.0;-5429.202451703447;-6878.102971118748;1262.6354414211437;295487.6472485394;73750.0;221737.64724853938
0.3040000000000002;-3090469303.0;-3097102782.0;23900536.0;-4316.763973829082;-5615.467529697605;1213.9881259941576;278109.6194685913;88500.0;189609.6194685913
0.3080000000000002;-3103688072.0;-3114708699.0;24239396.0;-3304.692151330273;-4401.479403703447;1127.0094578743651;253017.95562470215;102583.33333333333;150434.62229136884
0.3120000000000002;-3113356003.0;-3127806578.0;24118506.0;-2416.982619442507;-3274.469945829082;1006.8735524988087;221927.3829719416;115583.33333333333;106344.04963860827
0.3160000000000002;-3120029521.0;-3136876963.0;23520960.0;-1668.3794267211001;-2267.5963933302733;862.0150538877665;187150.79818035167;127166.66666666667;59984.131513685
0.32000000000000023;-3124291284.0;-3142499288.0;22469767.0;-1065.440666425361;-1405.5813394425068;703.4018937214065;150734.69007393476;137083.33333333334;13651.356740601415
0.32400000000000023;-3126731042.0;-3145308005.0;21016721.0;-609.939469016945;-702.1794457211003;540.4577822957391;113875.299352104;145166.66666666666;-31291.36731456265
0.32800000000000024;-3127919964.0;-3145954891.0;19223849.0;-297.23053971566134;-161.72166342536116;378.40770140841596;78177.23232532093;151416.66666666666;-73239.43434134572
0.33200000000000024;-3128359763.0;-3145088147.0;17168183.0;-109.9498063167743;216.6860379830548;224.31529130128382;46820.18334972176;156000.0;-109179.81665027824
0.33600000000000024;-3128430250.0;-3143324142.0;14964379.0;-17.62163122920377;441.0013292843386;92.51716139888691;23082.043771892633;159000.0;-135917.95622810736
0.34000000000000025;-3128370993.0;-3141190069.0;12759819.0;14.814109821003745;533.5184906832255;-2.4679049124293897;8108.9352625518795;160666.66666666666;-152557.73140411478
0.34400000000000025;-3128301769.0;-3139065867.0;10694874.0;17.306008087359405;531.0505857707961;-56.356893949792436;622.9745665889151;161166.66666666666;-160543.69210007775
0.34800000000000025;-3128262520.0;-3137167093.0;8865324.0;9.81232939509506;474.6936918210037;-76.17875173364433;-1873.419673066086;160833.33333333334;-162706.75300639943
0.35200000000000026;-3128252657.0;-3135573034.0;7310514.0;2.4657433956006063;398.5149400873594;-74.35050869226438;-1836.6464998736137;160083.33333333334;-161919.97983320695
0.35600000000000026;-3128258705.0;-3134276377.0;6023720.0;-1.5119780171518742;324.164431395095;-62.67872799949441;-994.4303531881201;159166.66666666666;-160161.0970198548
0.36000000000000026;-3128268554.0;-3133230435.0;4971730.0;-2.4622188040243116;261.4857033956006;-49.21329141275248;-237.56019671810935;158166.66666666666;-158404.22686338477
0.36400000000000027;-3128275817.0;-3132381346.0;4112792.0;-1.815865882169327;212.2724119828481;-37.884574786872435;161.58823046374616;157000.0;-156838.41176953627
0.36800000000000027;-3128279014.0;-3131683795.0;3407978.0;-0.7992798594567385;174.38783719597566;-29.660649078145013;254.14650567814712;155666.66666666666;-155412.5201609885
0.3720000000000003;-3128279213.0;-3131104887.0;2825873.0;-0.04971181997304879;144.72718811783065;-24.013928977287392;187.39200987092244;154083.33333333334;-153895.9413234624
0.3760000000000003;-3128278064.0;-3130622034.0;2342821.0;0.28728036451134253;120.71325914054326;-20.021667960516325;84.24804612109783;152000.0;-151915.7519538789
0.3800000000000003;-3128276785.0;-3130219268.0;1941204.0;0.31970790230868945;100.69159118002693;-16.9325388155156;8.106884449336729;149333.33333333334;-149325.226448884
0.3840000000000003;-3128275932.0;-3129884232.0;1607447.0;0.21325533545769876;83.75905236451133;-14.319123462202654;-26.613141712747673;145833.33333333334;-145859.9464750461
0.3880000000000003;-3128275570.0;-3129606473.0;1330541.0;0.09051901634352276;69.43992890230868;-12.013410566850993;-30.684079778544;141750.0;-141780.68407977856
0.3920000000000003;-3128275538.0;-3129376767.0;1101197.0;0.007966757841843029;57.426518335457686;-9.984528319114169;-20.638064625419933;136750.0;-136770.6380646254
0.3960000000000003;-3128275646.0;-3129187000.0;911462.0;-0.027050365798523653;47.44199001634352;-8.24115725850168;-8.754280910091671;131000.0;-131008.75428091009
0.4000000000000003;-3128275766.0;-3129030197.0;754551.0;-0.0299738867112625;39.20083275784184;-6.782190123640362;-0.7308802281847113;124416.66666666667;-124417.39754689486
0.4040000000000003;-3128275844.0;-3128900523.0;624757.0;-0.019379247437838015;32.418642634201476;-5.584065520912741;2.648659818356121;117250.0;-117247.35134018165
0.4080000000000003;-3128275875.0;-3128793185.0;517341.0;-0.007815206981777295;26.834577113288734;-4.608293360726574;2.89101011401518;109500.0;-109497.10898988598
0.4120000000000003;-3128275877.0;-3128704280.0;428405.0;-0.0005196612430969726;22.22628375256216;-3.812683959543943;1.8238864346700805;101083.33333333333;-101081.50944689866
0.4160000000000003;-3128275868.0;-3128630626.0;354749.0;0.002204294774086567;18.413599793018218;-3.159912454261317;0.6809890042958848;92250.0;-92249.3190109957
0.4200000000000003;-3128275860.0;-3128569612.0;293744.0;0.002098897488963522;15.253687338756901;-2.620491043982815;-0.026349321280761166;83083.33333333333;-83083.35968265461
0.4240000000000003;-3128275856.0;-3128519080.0;243220.0;0.0009976881675446048;12.633196294774086;-2.172637397285124;-0.27530233035472934;73583.33333333333;-73583.60863566368
0.4280000000000003;-3128275856.0;-3128477238.0;201382.0;1.7010298112047246e-05;10.460558897488962;-1.800135209321418;-0.24516946735813938;63750.0;-63750.24516946736
0.43200000000000033;-3128275858.0;-3128442597.0;166741.0;-0.00046818224131043787;8.660423688167544;-1.4905436778694323;-0.12129813485562128;53833.333333333336;-53833.454631468194
0.43600000000000033;-3128275860.0;-3128413918.0;138060.0;-0.000525889849597981;7.169880010298112;-1.233768192539423;-0.01442690207188579;44000.0;-44000.014426902075
0.44000000000000034;-3128275861.0;-3128390174.0;114314.0;-0.0003674971113582211;5.936111817758689;-1.0211357076082876;0.039598184559939985;34666.666666666664;-34666.62706848211
0.44400000000000034;-3128275862.0;-3128370515.0;94654.0;-0.0001724277173021951;4.914976110150401;-0.8452216072617595;0.04876734851400649;25833.333333333332;-25833.284565984817
0.44800000000000034;-3128275862.0;-3128354236.0;78374.0;-3.263858956609631e-05;4.0697545028886415;-0.699844930605944;0.0349472819340247;18083.333333333332;-18083.2983860514
0.45200000000000035;-3128275862.0;-3128340757.0;64895.0;3.355159450457406e-05;3.3699095722826975;-0.5794572108722638;0.016547546017667593;11333.333333333334;-11333.316785787316
0.45600000000000035;-3128275862.0;-3128329596.0;53734.0;4.5940901131927064e-05;2.7904523614104337;-0.4798568098159297;0.003097326656838251;5916.666666666667;-5916.66356934001
0.46000000000000035;-3128275862.0;-3128320354.0;44492.0;3.264107697908767e-05;2.310595551594504;-0.3973936106933722;-0.0033249560382098485;1666.6666666666667;-1666.6699916227049
0.46400000000000036;-3128275862.0;-3128312702.0;36840.0;1.4527611205373412e-05;1.9132019409011318;-0.329049299824153;-0.0045283664434285645;-1250.0;1249.9954716335565
0.46800000000000036;-3128275862.0;-3128306366.0;30504.0;1.645174952483794e-06;1.5841526410769788;-0.27246611346577354;-0.0032206090632224045;-3083.3333333333335;3083.3301127242703
0.47200000000000036;-3128275862.0;-3128301120.0;25258.0;-4.10559951288498e-06;1.3116865276112053;-0.22559088243625292;-0.0014376936163421935;-3833.3333333333335;3833.331895639717
0.47600000000000037;-3128275862.0;-3128296776.0;20914.0;-4.772350565218336e-06;1.0860956451749524;-0.18679775077446537;-0.00016668776308333895;-4000.0;3999.999833312237
0.48000000000000037;-3128275862.0;-3128293179.0;17317.0;-3.1598850935708914e-06;0.899297894400487;-0.15467166675105226;0.0004031163679118611;-3666.6666666666665;3666.6670697830345
0.4840000000000004;-3128275862.0;-3128290201.0;14339.0;-1.2754210113185142e-06;0.7446262276494348;-0.1280523875345284;0.0004711160205630943;-3166.6666666666665;3166.667137782687
0.4880000000000004;-3128275862.0;-3128287735.0;11873.0;-2.1889234323945246e-08;0.6165738401149063;-0.10603611553591774;0.00031338294424864224;-2583.3333333333335;2583.3336467162776
