Zeit[sec];Sollposition[°];Istposition[°];Positionsschleppfehler[°];Sollgeschwindigkeit[°/s];Istgeschwindigkeit[°/s];Geschwindigkeitsdifferenz[°/s];Sollbeschleunigung[°/s*s];Istbeschleunigung[°/s*s];Beschleunigungsdifferenz[°/s*s]
0.0;69.0;-1203003.0;1202950.0;0.01063321468986592;4.765594099496069;110.76542287807948;-5.627283455915409;-166.66666666666666;161.03938321075125
0.004;59.0;-1192017.0;1192059.0;-0.0024784911074193098;3.9605418488100685;110.50148213690537;-3.2779264493213076;83.33333333333333;-86.61125978265464
0.008;32.0;-1159058.0;1159122.0;-0.006750089599173351;4.447158845060381;106.83411967260724;-1.0678996229385103;333.3333333333333;-334.4012329562718
0.012;9.0;-1131592.0;1131639.0;-0.005833200679094534;7.315803583992172;101.3174451292433;0.2292222300197041;333.3333333333333;-333.1041111033136
0.016;-3.0;-1104126.0;1104148.0;-0.0032029968892914873;9.006530169607798;96.98531630182086;0.6575509474507617;166.66666666666666;-166.00911571921588
0.02;-7.0;-1104126.0;1104129.0;-0.0009128041655261895;2.382984492333285;103.60860376929732;0.5725481809413244;-333.3333333333333;333.90588151427465
0.024;-5.0;-1093140.0;1093136.0;0.00035099047285377445;2.5617992780969536;102.37694633929411;0.31594865959499097;-416.6666666666667;416.9826153262617
0.028;-3.0;-1071167.0;1071162.0;0.0007145921099682797;3.0632154992353;99.76791135232848;0.09090040927862632;0.0;0.09090040927862632
0.032;0.0;-1027222.0;1027219.0;0.0005789363487904651;6.495271754483116;92.11823999331085;-0.03391394029445365;416.6666666666667;-416.7005806069611
0.036000000000000004;0.0;-988770.0;988769.0;0.0002981268178978979;8.00144018268939;86.92104249355255;-0.07020238272314179;666.6666666666666;-666.7368690493897
0.04000000000000001;0.0;-972290.0;972290.0;6.9550032435463e-05;3.8159210523675005;89.52438734224792;-0.057144196365608725;83.33333333333333;-83.39047752969894
0.04400000000000001;0.0;-950317.0;950317.0;-4.8768728642272534e-05;7.116506924437277;84.11413422062503;-0.029579690269433884;-500.0;499.97042030973057
0.048000000000000015;-1623.0;-928345.0;928345.0;-0.406064671979049;5.919102274715123;83.20204170309438;-101.50397581260168;-250.0;148.49602418739832
0.05200000000000002;-164754.0;-911865.0;911222.0;-40.7826572670181;4.291790462408647;83.0244945004964;-10094.148148759763;-83.33333333333333;-10010.81481542643
0.05600000000000002;-686426.0;-878906.0;812614.0;-130.4179666945615;3.345256854297069;58.253313393483296;-22408.82735688585;500.0;-22908.82735688585
0.060000000000000026;-1860488.0;-928345.0;557712.0;-293.5154603762037;-13.597106416812439;-8.947616889280239;-40774.37342041055;-666.6666666666666;-40107.70675374388
0.06400000000000003;-3797512.0;-1181030.0;32163.0;-484.2561922156713;-75.21023719100445;-116.2604824588124;-47685.18295986691;-3000.0;-44685.18295986691
0.06800000000000003;-6575347.0;-2279663.0;-341945.0;-694.4586073211718;-288.3255765372503;-112.68667431232632;-52550.60377637513;-14000.0;-38550.60377637513
0.07200000000000004;-10304935.0;-4279175.0;-608355.0;-932.3970533100035;-503.1926399151842;-121.68998400146023;-59484.61149720791;-32833.333333333336;-26651.278163874573
0.07600000000000004;-15100725.0;-7179565.0;-858229.0;-1198.9474036946567;-741.172188769344;-128.78362382217233;-66637.58759616331;-48000.0;-18637.587596163314
0.08000000000000004;-21108180.0;-11332397.0;-852141.0;-1501.8635276125763;-1056.9716957056098;-61.519772100718;-75729.03097947988;-60000.0;-15729.030979479887
0.08400000000000005;-28470318.0;-16831055.0;-623432.0;-1840.5344771539917;-1386.7141940411277;9.377626736737056;-84667.73738535386;-68166.66666666667;-16501.070718687188
0.08800000000000005;-37222456.0;-23433838.0;-558115.0;-2188.0343478228947;-1670.0869822669738;-17.858425941605446;-86874.96766722575;-75750.0;-11124.967667225746
0.09200000000000005;-47294984.0;-31453857.0;-443409.0;-2518.1319425249453;-2028.461523355805;9.565913262041931;-82524.39867551265;-78833.33333333333;-3691.0653421793286
0.09600000000000006;-58591563.0;-40643921.0;-520853.0;-2824.1447184148456;-2308.940881262537;-57.93776103010214;-76503.19397247506;-79416.66666666667;2913.4726941916115
0.10000000000000006;-70999174.0;-51245728.0;-469154.0;-3101.9023916751853;-2663.6351004956505;-18.930744626060005;-69439.41831508494;-79666.66666666667;10227.248351581737
0.10400000000000006;-84365138.0;-62896729.0;-548067.0;-3341.490943306268;-2926.497815363489;-58.59486892670566;-59897.13790777068;-80416.66666666667;20519.528758895987
0.10800000000000007;-98530648.0;-75509033.0;-716836.0;-3541.37732897618;-3159.6119719703006;-104.47230648872801;-49971.59641747794;-73000.0;23028.40358252206
0.11200000000000007;-113389569.0;-89011230.0;-891995.0;-3714.7299983604053;-3369.88203282742;-135.08842000247887;-43338.16734605637;-66750.0;23411.832653943635
0.11600000000000008;-128864147.0;-103326416.0;-1012561.0;-3868.6444790739683;-3572.465251524065;-133.67834893646523;-38478.62017839077;-57333.333333333336;18854.713154942565
0.12000000000000008;-144843376.0;-118097534.0;-1340399.0;-3994.806977531029;-3696.5790643927476;-206.83818635964826;-31540.624614265198;-49666.666666666664;18126.042052401466
0.12400000000000008;-161191387.0;-133522339.0;-1586651.0;-4087.002593949994;-3872.407069498294;-197.67552226442876;-23048.90410474127;-41000.0;17951.09589525873
0.12800000000000009;-177781712.0;-149419556.0;-1811923.0;-4147.580943115618;-3975.326327618043;-229.24014587720148;-15144.587291405856;-37583.333333333336;22438.74604192748
0.1320000000000001;-194508699.0;-165520020.0;-2153382.0;-4181.746661911778;-4053.860331367654;-263.345094799849;-8541.429699040009;-29166.666666666668;20625.23696762666
0.1360000000000001;-211293407.0;-182054443.0;-2262049.0;-4196.176778059643;-4131.813474468772;-246.11539504552456;-3607.529036966298;-27333.333333333332;23725.804296367034
0.1400000000000001;-228087508.0;-198786621.0;-2278943.0;-4198.52508708475;-4188.128989883175;-217.9173258520932;-587.0772562768707;-19000.0;18412.92274372313
0.1440000000000001;-244869400.0;-215744019.0;-2109639.0;-4195.47282538712;-4228.183390809485;-171.36524762448153;763.065424407614;-19333.333333333332;20096.398757740946
0.1480000000000001;-261635126.0;-232646484.0;-1996379.0;-4191.4313138645175;-4239.005218059714;-149.94831933031855;1010.3778806505943;-10666.666666666666;11677.04454731726
0.1520000000000001;-278388998.0;-249532471.0;-1885946.0;-4188.4676181055875;-4206.74229538807;-168.19683417484157;740.9239397325109;-6666.666666666667;7407.590606399178
0.1560000000000001;-295136991.0;-266358032.0;-1821506.0;-4186.99804074632;-4219.077080527622;-146.06743100780568;367.3943398168831;1916.6666666666667;-1549.2723268497837
0.16000000000000011;-311883534.0;-283458252.0;-1472896.0;-4186.635715502122;-4257.227519498338;-72.0728155512843;90.58131104939093;-2750.0;2840.581311049391
0.16400000000000012;-328630813.0;-300272827.0;-1405774.0;-4186.819399821766;-4203.720791109524;-118.0965081436434;-45.92107991084049;166.66666666666666;-212.58774657750715
0.16800000000000012;-345379328.0;-317076416.0;-1349028.0;-4187.12858088002;-4182.846975439175;-133.370379025092;-77.2952645636451;-833.3333333333334;756.0380687696883
0.17200000000000013;-362128753.0;-333896484.0;-1276725.0;-4187.356114255369;-4196.847266310862;-112.65924269423704;-56.883343837171196;4833.333333333333;-4890.216677170504
0.17600000000000013;-378878580.0;-350628662.0;-1293415.0;-4187.456492465027;-4165.433237243244;-145.9515854571273;-25.094552414429927;3000.0;-3025.09455241443
0.18000000000000013;-395628437.0;-367349854.0;-1321803.0;-4187.464012193779;-4172.375080489646;-141.9125869540694;-1.8799321881033393;2750.0;-2751.8799321881033
0.18400000000000014;-412378158.0;-384098511.0;-1322982.0;-4187.430107082297;-4176.007195983444;-138.45796178296223;8.476277870613558;750.0;-741.5237221293864
0.18800000000000014;-429127728.0;-400984497.0;-1186799.0;-4187.3922637242495;-4222.39829732607;-78.98493195986157;9.460839511802988;416.6666666666667;-407.2058271548637
0.19200000000000014;-445877198.0;-417875977.0;-1044981.0;-4187.367380736979;-4206.474554113349;-81.25892333153752;6.22074681768936;-4916.666666666667;4922.887413484356
0.19600000000000015;-462626628.0;-434739990.0;-930499.0;-4187.357327482618;-4200.345968557807;-76.3645551892123;2.513313590270627;-2666.6666666666665;2669.179980256937
0.20000000000000015;-479376057.0;-451455688.0;-964256.0;-4187.357128945312;-4171.605270273923;-108.32684630354015;0.04963432638760423;166.66666666666666;-166.61703234027905
0.20400000000000015;-496125502.0;-468424072.0;-745302.0;-4187.360963960784;-4232.910813045024;-25.995486626439742;-0.958753867962514;2250.0;-2250.9587538679625
0.20800000000000016;-512874963.0;-485293579.0;-625230.0;-4187.3649241385965;-4217.152292789197;-30.228437843127722;-0.9900444531467656;-1000.0;999.0099555468532
0.21200000000000016;-529624433.0;-502289429.0;-378831.0;-4187.367386033855;-4241.984820305173;18.254532666566774;-0.6154738146051386;-3333.3333333333335;3332.7178595187283
0.21600000000000016;-546373907.0;-518939209.0;-478516.0;-4187.368274704601;-4164.443854377819;-68.85955865961296;-0.22216768661564856;0.0;-0.22216768661564856
0.22000000000000017;-563123380.0;-535775757.0;-391439.0;-4187.36816646612;-4214.026487734119;-10.919380218629158;0.027059620379077387;4583.333333333333;-4583.306273712954
0.22400000000000017;-579872852.0;-552431030.0;-485640.0;-4187.367675380022;-4170.094963012677;-63.89470357001028;0.12277152450224094;3583.3333333333335;-3583.2105618088312
0.22800000000000017;-596622321.0;-569278564.0;-387578.0;-4187.367192133418;-4214.027783748675;-10.54767664368228;0.12081165095878532;1833.3333333333333;-1833.2125216823745
0.23200000000000018;-613371790.0;-585955811.0;-459802.0;-4187.366865973679;-4172.778060912419;-58.730417745339764;0.08153993485393585;-1500.0;1500.081539934854
0.23600000000000018;-630121257.0;-602748413.0;-416669.0;-4187.366691288013;-4197.990515272266;-29.376774375432433;0.04367141650618578;750.0;-749.9563285834938
0.24000000000000019;-646870724.0;-619431152.0;-483399.0;-4187.366602549048;-4180.807281153892;-52.96582147074605;0.022184741055752966;250.0;-249.97781525894425
0.2440000000000002;-663620191.0;-636350098.0;-313920.0;-4187.366535707851;-4230.98651086039;13.483533732435717;0.01671029940553126;-500.0;500.01671029940553
0.2480000000000002;-680369658.0;-653049316.0;-364169.0;-4187.366452243321;-4181.023130187577;-41.30367037992346;0.02086613244500768;-2000.0;2000.020866132445
0.25200000000000017;-697119124.0;-669940796.0;-222156.0;-4187.3663388762;-4220.888924576093;12.195445568986543;0.028341780307528097;-1166.6666666666667;1166.6950084469743
0.25600000000000017;-713868590.0;-686513672.0;-398746.0;-4187.366197626743;-4160.02171701954;-65.6243067645446;0.03531236416165484;1666.6666666666667;-1666.631354302505
0.2600000000000002;-730618055.0;-703223877.0;-438007.0;-4187.3660358665265;-4195.08069076233;-34.33426477492412;0.040440054135615355;4333.333333333333;-4333.292893279197
0.2640000000000002;-747367519.0;-719956055.0;-455295.0;-4187.365860242453;-4189.421389413179;-41.6530649058177;0.04390601839077135;583.3333333333334;-583.2894273149426
0.2680000000000002;-764116982.0;-736649780.0;-511034.0;-4187.365674518234;-4189.005810818751;-47.41942036339333;0.04643105467039277;666.6666666666666;-666.6202356119962
0.2720000000000002;-780866445.0;-753475342.0;-434936.0;-4187.365479829362;-4229.187317796284;0.06767416153525119;0.04867221809945477;-2500.0;2500.0486722180995
0.2760000000000002;-797615907.0;-770372314.0;-287427.0;-4187.3652758091175;-4230.308170012678;15.349579597326738;0.05100506109556591;-3083.3333333333335;3083.384338394429
0.2800000000000002;-814365368.0;-787098999.0;-310205.0;-4187.365061624122;-4196.0684524703365;-21.07662760892981;0.053546248864222434;-2166.6666666666665;2166.7202129155307
0.2840000000000002;-831114828.0;-803930054.0;-228611.0;-4187.364836573253;-4202.38964575438;-6.922202329156789;0.056262717180288746;-1583.3333333333333;1583.3895960505135
0.2880000000000002;-847864287.0;-820717163.0;-190963.0;-4187.364600275755;-4212.86751615556;7.170094505614543;0.059074374576084665;2916.6666666666665;-2916.6075922920904
0.2920000000000002;-864613745.0;-837658081.0;496.0;-4187.364352622732;-4233.1403843965645;45.82325619291896;0.06191325564941508;-2166.6666666666665;2166.728579922316
0.2960000000000002;-881363203.0;-854577026.0;169982.0;-4187.364093651345;-4231.9796316583115;60.933400188571795;0.0647428469164879;-2333.3333333333335;2333.39807618025
0.3000000000000002;-898112659.0;-871331177.0;174675.0;-4187.3638234388845;-4181.620541555017;11.025090159291722;0.06755311505912687;-2166.6666666666665;2166.7342197817256
0.3040000000000002;-914862114.0;-888002930.0;96971.0;-4187.36354204371;-4179.246797395965;1.1920253622365635;0.07034879354250734;5083.333333333333;-5083.2629845397905
0.3080000000000002;-931611567.0;-904652710.0;-2705.0;-4187.36324948881;-4147.096862105868;-40.526531347502896;0.07313872515624098;4083.3333333333335;-4083.2601946081772
0.3120000000000002;-948361020.0;-921357422.0;-47447.0;-4187.362945770353;-4187.2880202404485;-4.6303194586162135;0.07592961424052191;5500.0;-5499.9240703857595
0.3160000000000002;-965110471.0;-938232422.0;78100.0;-4187.36263087072;-4193.947463979799;14.081933196432146;0.07872490823501721;-4666.666666666667;4666.745391574902
0.32000000000000023;-981859921.0;-954854736.0;-49038.0;-4187.362304768708;-4163.542562798475;-28.52790789869232;0.08152550299200811;833.3333333333334;-833.2518078303414
0.32400000000000023;-998609370.0;-971542969.0;-110256.0;-4187.36196744714;-4155.836239919132;-42.11083950234024;0.08433039192823344;-1916.6666666666667;1916.750997058595
0.32800000000000024;-1015358817.0;-988291626.0;-111049.0;-4187.361618892416;-4189.227599675026;-8.795277261685442;0.08713868101040134;4250.0;-4249.91286131899
0.33200000000000024;-1032108263.0;-1005183105.0;30982.0;-4187.3612590941075;-4204.087176154958;19.69961692785091;0.08994957715913188;-3750.0;3750.089949577159
0.33600000000000024;-1048857707.0;-1021942749.0;41180.0;-4187.360888043262;-4191.392514663002;7.984316382699035;0.0927627113469498;-2000.0;2000.092762711347
0.34000000000000025;-1065607150.0;-1038510132.0;-140883.0;-4187.360505732156;-4129.642172330182;-71.24370975626061;0.09557777661939326;-500.0;500.0955777766194
0.34400000000000025;-1082356592.0;-1055225830.0;-174628.0;-4187.360112152244;-4175.757996891463;-28.367029745554646;0.09839497784014384;5583.333333333333;-5583.234938355493
0.34800000000000025;-1099106031.0;-1072001953.0;-147948.0;-4187.359707295551;-4169.747687442649;-31.815672481331603;0.10121417335540173;-83.33333333333333;83.43454750668873
0.35200000000000026;-1115855469.0;-1088613281.0;-286061.0;-4187.359291154002;-4142.684462659264;-72.1373472797568;0.10403538726677652;500.0;-499.8959646127332
0.35600000000000026;-1132604905.0;-1105301514.0;-347266.0;-4187.358863719559;-4160.5987202007755;-60.098360473364664;0.10685861070669489;-1000.0;1000.1068586107067
0.36000000000000026;-1149354340.0;-1122165527.0;-232690.0;-4187.35842498506;-4208.204615696848;-1.4927484244153675;0.10968362471430737;666.6666666666666;-666.5569830419523
0.36400000000000027;-1166103773.0;-1138930664.0;-216989.0;-4187.357974942685;-4186.715777105235;-21.473859167454066;0.11251059368078131;-3083.3333333333335;3083.4458439270143
0.36800000000000027;-1182853203.0;-1155712280.0;-184807.0;-4187.3575135859;-4181.374204436816;-23.725516684168724;0.11533919632711331;-3000.0;3000.115339196327
0.3720000000000003;-1199602632.0;-1172395020.0;-251499.0;-4187.357040907922;-4170.507795065216;-40.993903593661344;0.1181694944989431;1083.3333333333333;-1083.2151638388343
0.3760000000000003;-1216352059.0;-1189434814.0;38865.0;-4187.356556903412;-4255.104324947974;71.47803606825528;0.1210011275816214;-416.6666666666667;416.7876677942483
0.3800000000000003;-1233101484.0;-1206304321.0;158944.0;-4187.356061566024;-4214.1495832698165;42.05135549253919;0.1238343468230596;-4166.666666666667;4166.79050101349
0.3840000000000003;-1249850907.0;-1223146362.0;251559.0;-4187.35555489111;-4208.855701783205;45.64900243737975;0.12666872862610035;-2666.6666666666665;2666.7933353952926
0.3880000000000003;-1266600328.0;-1239774170.0;129943.0;-4187.355036872389;-4155.623186021834;-19.25814955786791;0.12950468021699635;2083.3333333333335;-2083.2038286531165
0.3920000000000003;-1283349747.0;-1256539307.0;145657.0;-4187.354507505967;-4188.7060770930375;15.333796619474015;0.1323416054219706;6416.666666666667;-6416.534325061245
0.3960000000000003;-1300099164.0;-1273161621.0;18551.0;-4187.353966787384;-4170.341552790365;-15.23238123176543;0.1351796458948229;3583.3333333333335;-3583.1981536874387
0.4000000000000003;-1316848578.0;-1290014648.0;122160.0;-4187.353414712806;-4212.406928313728;36.779992092463544;0.13801864452034351;-166.66666666666666;166.804685311187
0.4040000000000003;-1333597991.0;-1306653442.0;11538.0;-4187.3528512780895;-4161.820288040615;-24.425815026093915;0.14085867906032945;-1833.3333333333333;1833.4741920123936
0.4080000000000003;-1350347400.0;-1323418579.0;27262.0;-4187.352276480847;-4185.342435365591;0.6063928110534107;0.1436993106835871;-500.0;500.1436993106836
0.4120000000000003;-1367096808.0;-1340029907.0;-110822.0;-4187.351690316617;-4157.210813445832;-40.780725235507816;0.14654105734734912;1333.3333333333333;-1333.186792275986
0.4160000000000003;-1383846213.0;-1356904907.0;14770.0;-4187.351092783895;-4230.242453022048;44.30832557818849;0.14938318054191768;1333.3333333333333;-1333.1839501527913
0.4200000000000003;-1400595616.0;-1373686523.0;46979.0;-4187.35048388004;-4201.439269093809;18.597796255049616;0.15222596380226605;-3416.6666666666665;3416.818892630469
0.4240000000000003;-1417345016.0;-1390391235.0;2286.0;-4187.349863603419;-4180.501807090154;-6.62959177402081;0.15506915519836184;-1166.6666666666667;1166.821735821865
0.4280000000000003;-1434094414.0;-1406986084.0;-152266.0;-4187.3492319520865;-4168.894721404718;-33.07305611310676;0.15791283317412308;1916.6666666666667;-1916.5087538334926
0.43200000000000033;-1450843809.0;-1423806152.0;-81598.0;-4187.348588925726;-4211.057386697083;15.874361899125688;0.1607565900485497;2750.0;-2749.8392434099515
0.43600000000000033;-1467593202.0;-1440461426.0;-175720.0;-4187.347934522079;-4172.089945644402;-32.12815505887647;0.16360091171918612;-166.66666666666666;166.83026757838584
0.44000000000000034;-1484342591.0;-1457182617.0;-203924.0;-4187.347268740892;-4185.939229838785;-20.985807393848518;0.16644529682707798;-1333.3333333333333;1333.4997786301603
0.44400000000000034;-1501091979.0;-1473942261.0;-193671.0;-4187.34659158292;-4209.4801062363185;3.5400158516767988;0.16928949298744556;250.0;-249.83071050701255
0.44800000000000034;-1517841363.0;-1490784302.0;-101019.0;-4187.3459030477225;-4217.270602309907;20.225774150532743;0.17213379942404572;-1583.3333333333333;1583.5054671327573
0.45200000000000035;-1534590745.0;-1507500000.0;-134707.0;-4187.345203136053;-4189.4794429460635;-10.798751611120679;0.17497791736786894;-2083.3333333333335;2083.5083112507014
0.45600000000000035;-1551340123.0;-1524237671.0;-146419.0;-4187.344491848477;-4187.103553269251;-14.298300308808393;0.17782189388526604;-416.6666666666667;416.84448856055195
0.46000000000000035;-1568089499.0;-1541101685.0;-31786.0;-4187.343769186692;-4227.956269402437;37.55988817974503;0.18066544635075843;1166.6666666666667;-1166.486001220316
0.46400000000000036;-1584838872.0;-1557987671.0;104823.0;-4187.343035151829;-4208.28684420994;31.005642717883347;0.1835087157360249;-3416.6666666666665;3416.8501753824025
0.46800000000000036;-1601588242.0;-1574780273.0;148050.0;-4187.342289746585;-4206.280567766781;33.14988537908175;0.18635131095834367;-1083.3333333333333;1083.5196846442916
0.47200000000000036;-1618337609.0;-1591589355.0;207760.0;-4187.341532972096;-4189.444512129948;22.046728218677345;0.1891936224183155;-1666.6666666666667;1666.855860289085
0.47600000000000037;-1635086973.0;-1608184204.0;53241.0;-4187.340764831561;-4157.145383494933;-25.08547457000259;0.19203513375032344;6000.0;-5999.80796486625
