Zeit[sec];Sollposition[°];Istposition[°];Positionsschleppfehler[°];Sollgeschwindigkeit[°/s];Istgeschwindigkeit[°/s];Geschwindigkeitsdifferenz[°/s];Sollbeschleunigung[°/s*s];Istbeschleunigung[°/s*s];Beschleunigungsdifferenz[°/s*s]
0.0;-9979199999.0;-9979205933.0;5934.0;0.0;-3.687134625196457;4.0431746252130205;0.0;0.0;0.0
0.004;-9979199999.0;-9979194946.0;-5053.0;0.0;3.0017275636717677;-3.3049075637243828;0.0;0.0;0.0
0.008;-9979199999.0;-9979194946.0;-5053.0;0.0;0.33454302757233384;-0.6377230276249486;0.0;83.33333333333333;-83.33333333333333
0.012;-9979199999.0;-9979194946.0;-5053.0;0.0;1.065755487702787;-1.3689354877554019;0.0;0.0;0.0
0.016;-9979199999.0;-9979205933.0;5934.0;0.0;-2.397343829102814;2.753383829119377;0.0;0.0;0.0
0.02;-9979199999.0;-9979200439.0;440.0;0.0;2.076975845903158;-2.0505758458784036;0.0;-83.33333333333333;83.33333333333333
0.024;-9979199999.0;-9979200439.0;440.0;0.0;-1.0588780274242162;1.085278027448971;0.0;83.33333333333333;-83.33333333333333
0.028;-9979199999.0;-9979205933.0;5934.0;0.0;-2.5160970145985484;2.8721370146151113;0.0;0.0;0.0
0.032;-9979199999.0;-9979205933.0;5934.0;0.0;-1.8102062296792865;2.1662462296958496;0.0;0.0;0.0
0.036000000000000004;-9979199999.0;-9979205933.0;5934.0;0.0;-2.1126883734539152;2.468728373470478;0.0;-83.33333333333333;83.33333333333333
0.04000000000000001;-9979199999.0;-9979205933.0;5934.0;0.0;-2.8056241523325443;3.161664152349107;0.0;0.0;0.0
0.04400000000000001;-9979199999.0;-9979200439.0;440.0;0.0;-0.4933148326948285;0.5197148327195833;0.0;0.0;0.0
0.048000000000000015;-9979199404.0;-9979200439.0;440.0;0.14896466427310504;-1.9235207445025444;1.9499207445272992;37.24116606827626;0.0;37.24116606827626
0.05200000000000002;-9979193466.0;-9979194946.0;-4816.0;1.4845331099337908;2.3152859457209707;-2.5451837839501037;333.8921114151714;0.0;333.8921114151714
0.05600000000000002;-9978985189.0;-9979205933.0;8881.0;52.0690064483183;-2.4499177301675084;3.6604015750632195;12646.118334596127;0.0;12646.118334596127
0.060000000000000026;-9978616033.0;-9979189453.0;78532.0;92.28905741161702;2.1784447934180498;24.066136016475998;10055.01274082468;83.33333333333333;9971.679407491349
0.06400000000000003;-9977945479.0;-9979134521.0;294477.0;167.638649071173;17.419116579942404;67.96873823853198;18837.397914888996;500.0;18337.397914888996
0.06800000000000003;-9976942473.0;-9978936768.0;584437.0;250.75130001840077;53.66869783273339;103.32585097335689;20778.162736806942;2500.0;18278.162736806942
0.07200000000000004;-9975540367.0;-9978376465.0;824734.0;350.5264954647281;156.09045715823024;93.5435978647115;24943.798861581832;7166.666666666667;17777.132194915164
0.07600000000000004;-9973576610.0;-9976986694.0;594258.0;490.93917781673576;353.73878006087244;-28.25968222458846;35103.170588001914;19750.0;15353.170588001916
0.08000000000000004;-9970870423.0;-9975256348.0;486365.0;676.5469280556523;430.5493000295535;4.245909753844558;46401.93755972914;31166.666666666668;15235.270893062467
0.08400000000000005;-9967264071.0;-9973245850.0;730695.0;901.5877679256968;513.2562964492067;94.29242365549976;56260.20996751112;31250.0;25010.209967511117
0.08800000000000005;-9962629535.0;-9970317993.0;861576.0;1158.6341454221354;749.9086907036751;66.47042868575261;64261.59437410965;30333.333333333332;33928.26104077631
0.09200000000000005;-9956847126.0;-9966445313.0;997633.0;1445.6019995988793;973.2651728273705;88.77684875492639;71741.96354418597;38000.0;33741.96354418598
0.09600000000000006;-9949812911.0;-9961655273.0;1291218.0;1758.5538292639976;1223.5065530366376;124.87281157571533;78237.95741627959;51083.333333333336;27154.624082946248
0.10000000000000006;-9941468647.0;-9955513916.0;1421866.0;2086.065774170146;1547.8916233862712;105.42139453183586;81877.98622653713;63750.0;18127.986226537134
0.10400000000000006;-9931782940.0;-9948103638.0;1557882.0;2421.426624470287;1858.919223711498;121.12719220677491;83840.21257503526;70333.33333333333;13506.879241701925
0.10800000000000007;-9920746334.0;-9939391479.0;1714172.0;2759.1514767150384;2203.204605507508;116.75781049115449;84431.21306118781;77750.0;6681.213061187805
0.11200000000000007;-9908397632.0;-9929278564.0;1814715.0;3087.1752838431817;2537.345898908474;124.90124754372346;82005.95178203582;82750.0;-744.0482179641776
0.11600000000000008;-9894813655.0;-9917792358.0;1877425.0;3395.993990704988;2890.9394981571586;108.93493615610032;77204.67671545157;82916.66666666667;-5711.989951215102
0.12000000000000008;-9880091185.0;-9905048218.0;1964066.0;3680.6174174102575;3199.967116583735;125.57190474296021;71155.8566763174;86083.33333333333;-14927.47665701593
0.12400000000000008;-9864348699.0;-9891106567.0;2050549.0;3935.6214057252596;3499.0971083652526;130.9690791768635;63750.997078750515;81333.33333333333;-17582.336254582813
0.12800000000000009;-9847727663.0;-9875857544.0;1921745.0;4155.25868597306;3810.9557885306253;84.40371041840763;54909.3200619501;80000.0;-25090.679938049903
0.1320000000000001;-9830378117.0;-9859855957.0;2004999.0;4337.386444018633;4001.7085643609466;139.8013671560334;45531.939511393146;72750.0;-27218.060488606854
0.1360000000000001;-9812442130.0;-9842865601.0;1919374.0;4483.996483990189;4243.794886933707;97.55011216933053;36652.50999288901;65416.666666666664;-28764.156673777656
0.1400000000000001;-9794059564.0;-9825331421.0;1962986.0;4595.64117097988;4385.793951265343;126.4330879877898;27911.17174742294;55250.0;-27338.82825257706
0.1440000000000001;-9775357663.0;-9807143555.0;1884732.0;4675.475084715191;4550.240123793006;90.24661093734176;19958.478433827622;46000.0;-26041.521566172378
0.1480000000000001;-9756427755.0;-9788494263.0;1742001.0;4732.476751927161;4678.977673581578;52.18228870159055;14250.416802992504;39833.333333333336;-25582.91653034083
0.1520000000000001;-9737339449.0;-9769564819.0;1602988.0;4772.076405189912;4732.018791318916;61.76806695642608;9899.913315687854;32166.666666666668;-22266.75335097881
0.1560000000000001;-9718157253.0;-9750541992.0;1571536.0;4795.548794723048;4770.063057706043;72.07250385138286;5868.097383283839;22416.666666666668;-16548.56928338283
0.16000000000000011;-9698933667.0;-9731299438.0;1453585.0;4805.896171323821;4798.396741926044;69.96916973935458;2586.8441501934285;16166.666666666666;-13579.822516473238
0.16400000000000012;-9679702419.0;-9711958008.0;1310212.0;4807.8117005197;4837.803425219238;40.32312911590361;478.8822989696655;9000.0;-8521.117701030335
0.16800000000000012;-9660479257.0;-9692605591.0;1184176.0;4805.790242563552;4833.019717144803;44.62586241533518;-505.3644890369924;9166.666666666666;-9672.031155703658
0.17200000000000013;-9641267473.0;-9673170776.0;977358.0;4802.945732670194;4859.810521113738;5.8299591077575315;-711.1274733395021;3750.0;-4461.127473339502
0.17600000000000013;-9622064269.0;-9653757935.0;783215.0;4800.800999319768;4876.580990188972;-24.913806872335044;-536.1833376064169;2416.6666666666665;-2952.8500042730834
0.18000000000000013;-9602865452.0;-9634312134.0;545863.0;4799.703953870457;4850.200923863233;-15.337097404845736;-274.26136232793397;2500.0;-2774.261362327934
0.18400000000000014;-9583667822.0;-9615003662.0;438906.0;4799.407321622856;4822.594143190682;4.11882154682371;-74.15806190010699;-333.3333333333333;259.1752714332263
0.18800000000000014;-9564469746.0;-9595783081.0;416697.0;4799.518643113197;4801.2597367783865;23.334855041422088;27.830372585185614;-2166.6666666666665;2194.497039251852
0.19200000000000014;-9545270808.0;-9576392212.0;223642.0;4799.734371529028;4844.686331201256;-31.814614267242177;53.932103957777144;-4583.333333333333;4637.26543729111
0.19600000000000015;-9526071207.0;-9557182617.0;212462.0;4799.899866623798;4808.151069298171;4.200174486812102;41.37377369238493;-1083.3333333333333;1124.7071070257182
0.20000000000000015;-9506871299.0;-9537967529.0;196570.0;4799.976971557618;4803.78743896506;7.8054847496150614;19.27623345500251;-1416.6666666666667;1435.9429001216693
0.20400000000000015;-9487671350.0;-9518681030.0;109790.0;4799.986981234938;4829.785625022381;-23.268757194851787;2.502419330085104;-1166.6666666666667;1169.1690859967518
0.20800000000000016;-9468471487.0;-9499394531.0;23213.0;4799.965563783549;4807.438449582696;-6.065181131064492;-5.3543628471288685;833.3333333333334;-838.6876961804622
0.21200000000000016;-9449271727.0;-9480113525.0;-57878.0;4799.93967341682;4803.757879346922;-7.252128447249561;-6.472591682268103;1583.3333333333333;-1589.8059250156014
0.21600000000000016;-9430072038.0;-9461079712.0;108131.0;4799.922012246903;4764.294913779691;42.1483703709082;-4.415292479279742;-2166.6666666666665;2162.251374187387
0.22000000000000017;-9410872379.0;-9441914063.0;142215.0;4799.914520502404;4798.019556163162;10.446166577183249;-1.8729361247551424;-5583.333333333333;5581.460397208578
0.22400000000000017;-9391672722.0;-9422731934.0;159764.0;4799.914035359196;4803.987775379554;5.517209991089658;-0.12128580215176044;-2500.0;2499.8787141978482
0.22800000000000017;-9372473055.0;-9403632202.0;259690.0;4799.916570824569;4765.925095659085;49.57067638846911;0.6338663433780312;1416.6666666666667;-1416.0328003232887
0.23200000000000018;-9353273376.0;-9384472046.0;299195.0;4799.919360042035;4792.994838747792;24.871904726462162;0.6973043664402212;333.3333333333333;-332.6360289668931
0.23600000000000018;-9334073691.0;-9365449219.0;476040.0;4799.921200011393;4756.611104987882;71.868956861671;0.45999233952898066;-1083.3333333333333;1083.7933256728622
0.24000000000000019;-9314874002.0;-9346261597.0;488099.0;4799.921980931955;4793.146971716106;36.05904150193783;0.19523014043443254;-1916.6666666666667;1916.8618968071012
0.2440000000000002;-9295674313.0;-9327123413.0;549601.0;4799.922072446715;4800.3129903436375;32.584568509541896;0.02287869006067922;750.0;-749.9771213099393
0.2480000000000002;-9276474624.0;-9307979736.0;605613.0;4799.921891729555;4777.816546574764;58.4422460655951;-0.04517929005487531;1416.6666666666667;-1416.7118459567216
0.25200000000000017;-9257274936.0;-9288764648.0;590214.0;4799.921712472983;4802.1596990837825;33.175141175071076;-0.04481414293877606;1250.0;-1250.0448141429388
0.25600000000000017;-9238075249.0;-9269631958.0;657213.0;4799.921644550401;4769.140080195025;70.21452152096663;-0.016980645568764885;1916.6666666666667;-1916.6836473122355
0.2600000000000002;-9218875561.0;-9250361938.0;586881.0;4799.921689713532;4816.121383003369;19.013163589735086;0.011290782822470646;-583.3333333333334;583.3446241161558
0.2640000000000002;-9199675873.0;-9231130371.0;555001.0;4799.921805950103;4814.406050063767;18.81567279108185;0.029059142661935766;2000.0;-1999.970940857338
0.2680000000000002;-9180476184.0;-9211717529.0;341847.0;4799.921950205052;4845.317085043945;-24.88452950908868;0.036063737297808984;2416.6666666666665;-2416.6306029293687
0.2720000000000002;-9161276495.0;-9192557373.0;381379.0;4799.922095816716;4807.422569068678;15.382033395164399;0.036402916066435864;1916.6666666666667;-1916.6302637506003
0.2760000000000002;-9142076805.0;-9173441162.0;464857.0;4799.922233078612;4768.528360677026;59.285066415556685;0.03431547406762547;-1250.0;1250.0343154740676
0.2800000000000002;-9122877115.0;-9154110718.0;334103.0;4799.92236283472;4820.759892328873;-0.7915629431781781;0.03243902688154776;-2583.3333333333335;2583.365772360215
0.2840000000000002;-9103677424.0;-9134895630.0;318705.0;4799.922489826904;4807.503131640695;11.541452079962255;0.031748046012580744;416.6666666666667;-416.6349186206541
0.2880000000000002;-9084477733.0;-9115620117.0;242882.0;4799.922618491464;4817.897301978595;-3.401969553759045;0.03216614004486473;1083.3333333333333;-1083.3011671932884
0.2920000000000002;-9065278041.0;-9096432495.0;254951.0;4799.922751426705;4807.109864812136;8.109735284228918;0.033233810199817526;-166.66666666666666;166.69990047686647
0.2960000000000002;-9046078348.0;-9077129517.0;151665.0;4799.922889480066;4816.722547533229;-7.699977088905143;0.03451334032433806;333.3333333333333;-333.298819993009
0.3000000000000002;-9026878655.0;-9057799072.0;20912.0;4799.923032483906;4826.350046658277;-25.17252127447955;0.035750960023506195;1250.0;-1249.9642490399765
0.3040000000000002;-9007678962.0;-9038468628.0;-109839.0;4799.923179921163;4830.733629052833;-37.40102368297448;0.036859314150206046;2833.3333333333335;-2833.2964740191833
0.3080000000000002;-8988479267.0;-9019088745.0;-290029.0;4799.9233313506575;4841.841746179894;-59.32039607735351;0.03785737362704822;1500.0;-1499.962142626373
0.3120000000000002;-8969279572.0;-8999818726.0;-360354.0;4799.923486531459;4832.428434488468;-54.12643539178043;0.038795200453023426;-250.0;250.03879520045302
0.3160000000000002;-8950079877.0;-8980510254.0;-469131.0;4799.923645404705;4822.212247919597;-50.436715929433376;0.03971831142735027;-500.0;500.03971831142735
0.32000000000000023;-8930880181.0;-8961212769.0;-566921.0;4799.923807997231;4821.309530256413;-55.40124164346162;0.04064813151671842;-1166.6666666666667;1166.7073147981835
0.32400000000000023;-8911680484.0;-8942052612.0;-527383.0;4799.923974384634;4784.014587247327;-15.733858308214622;0.04159685067861574;-916.6666666666666;916.7082635173452
0.32800000000000024;-8892480787.0;-8922782593.0;-597705.0;4799.924144611061;4815.324290594146;-51.26271757966151;0.04255660678609274;-2666.6666666666665;2666.7092232734526
0.33200000000000024;-8873281088.0;-8903677368.0;-503233.0;4799.92431871431;4793.609265873239;-23.87920497140385;0.043525812316147494;-2750.0;2750.043525812316
0.33600000000000024;-8854081389.0;-8884676514.0;-304390.0;4799.924496699286;4739.929058430716;41.73175421217093;0.044496243845060235;-3166.6666666666665;3166.7111629105116
0.34000000000000025;-8834881690.0;-8865752563.0;-28642.0;4799.92467857753;4752.19196383366;46.01390442882075;0.0454695612006617;-6250.0;6250.045469561201
0.34400000000000025;-8815681989.0;-8846658325.0;76819.0;4799.924864337503;4762.8164300943245;41.71727767404536;0.04643999318432179;-2083.3333333333335;2083.379773326518
0.34800000000000025;-8796482288.0;-8827553101.0;171295.0;4799.925053990456;4766.085293605499;44.117157557351675;0.04741323823509447;166.66666666666666;-166.61925342843156
0.35200000000000026;-8777282586.0;-8808524780.0;342675.0;4799.925247532927;4761.335018634968;59.15041980856404;0.04838561767428473;3416.6666666666665;-3416.6182810489922
0.35600000000000026;-8758082884.0;-8789287720.0;305317.0;4799.925444977034;4811.391804486417;6.852345129371315;0.049361026867700275;1083.3333333333333;-1083.2839723064656
0.36000000000000026;-8738883180.0;-8770133057.0;350356.0;4799.925646321335;4800.290010034196;20.656674648211265;0.05033607521909289;1666.6666666666667;-1666.6163305914476
0.36400000000000027;-8719683476.0;-8751011353.0;428354.0;4799.9258515791025;4775.167305424109;50.45945822594422;0.051314441861904925;2333.3333333333335;-2333.2820188914716
0.36800000000000027;-8700483771.0;-8731741333.0;358038.0;4799.926060742258;4826.359270872928;-4.9512643497982936;0.05229078897173167;833.3333333333334;-833.2810425443616
0.3720000000000003;-8681284065.0;-8712421875.0;238285.0;4799.926273826383;4828.881299516849;-14.658266210528382;0.05327103121999244;3000.0;-2999.94672896878
0.3760000000000003;-8662084358.0;-8693096924.0;113039.0;4799.926490833207;4822.436438099198;-15.727954097943439;0.054251705932983896;3666.6666666666665;-3666.6124149607335
0.3800000000000003;-8642884650.0;-8673947754.0;163576.0;4799.926711765041;4814.883430303522;-5.142511685830868;0.055232958402484655;250.0;-249.94476704159752
0.3840000000000003;-8623684941.0;-8654705200.0;120729.0;4799.9269366230355;4810.208383615904;-3.038066458259891;0.056214498727058526;-2000.0;2000.056214498727
0.3880000000000003;-8604485232.0;-8635495605.0;110842.0;4799.927165415561;4809.73442010168;-3.1571004784782417;0.057198131344193825;-2750.0;2750.057198131344
0.3920000000000003;-8585285521.0;-8616291504.0;106450.0;4799.927398135981;4792.881251706011;13.432774312128458;0.05818010504299309;1583.3333333333333;-1583.2751532282903
0.3960000000000003;-8566085810.0;-8597005005.0;19661.0;4799.927634797855;4813.727751363374;-12.620835018326943;0.059165468428545864;83.33333333333333;-83.27416786490478
0.4000000000000003;-8546886098.0;-8577773438.0;-12195.0;4799.92787539426;4815.239411787249;-16.043621182091556;0.06014910127305484;833.3333333333334;-833.2731842320603
0.4040000000000003;-8527686384.0;-8558426514.0;-159408.0;4799.928119933562;4826.701126119405;-36.33787731561188;0.06113482550063054;1333.3333333333333;-1333.2721985078326
0.4080000000000003;-8508486670.0;-8539205933.0;-180276.0;4799.928368411434;4812.773925387208;-23.66251444673344;0.06211946811163216;166.66666666666666;-166.60454719855503
0.4120000000000003;-8489286954.0;-8520029297.0;-157198.0;4799.928620835666;4783.95640190585;6.539935112540661;0.06310605795079027;-166.66666666666666;166.72977272461745
0.4160000000000003;-8470087238.0;-8500770264.0;-216516.0;4799.928877200488;4814.940149872306;-28.002642834560902;0.06409120555872505;-2666.6666666666665;2666.7307578722252
0.4200000000000003;-8450887520.0;-8481478271.0;-308793.0;4799.929137511383;4821.270385609731;-39.86924460835871;0.06507772354780172;1166.6666666666667;-1166.601588943119
0.4240000000000003;-8431687802.0;-8462169800.0;-417547.0;4799.9294017640195;4826.912070462823;-52.03591155529102;0.06606315923818329;1000.0;-999.9339368407618
0.4280000000000003;-8412488082.0;-8442993164.0;-394465.0;4799.92966996446;4815.032174073625;-38.77083331548147;0.067050110146738;416.6666666666667;-416.59961655651995
0.43200000000000033;-8393288362.0;-8423783569.0;-404342.0;4799.92994210751;4796.398667238098;-20.729680685064523;0.06803576252423227;-1250.0;1250.0680357625242
0.43600000000000033;-8374088640.0;-8404634399.0;-353792.0;4799.930218197208;4791.776855209883;-13.074598916503419;0.0690224244408455;-2833.3333333333335;2833.4023557577743
0.44000000000000034;-8354888917.0;-8385617065.0;-171405.0;4799.930498227496;4749.174655281551;40.47109469666702;0.07000757204878028;-1666.6666666666667;1666.7366742387155
0.44400000000000034;-8335689193.0;-8366522827.0;-65920.0;4799.930782200394;4775.428848295689;20.5462793114757;0.07099322442627454;-4500.0;4500.070993224426
0.44800000000000034;-8316489468.0;-8347280273.0;-108751.0;4799.931070112727;4824.551711884048;-31.14616270650822;0.0719780832696415;-83.33333333333333;83.40531141660297
0.45200000000000035;-8297289741.0;-8328158569.0;-30730.0;4799.931361963917;4783.984645169024;14.102449520310074;0.07296279750335088;1750.0;-1749.9270372024966
0.45600000000000035;-8278090014.0;-8309086304.0;96730.0;4799.931657756563;4774.810069559529;30.92491458065706;0.07394816157102468;1083.3333333333333;-1083.2593851717622
0.46000000000000035;-8258890285.0;-8290014038.0;224191.0;4799.931957479412;4758.616098122358;54.76683940869225;0.07493071211683855;-833.3333333333334;833.4082640454502
0.46400000000000036;-8239690555.0;-8270897827.0;307708.0;4799.932261134193;4770.794648643144;47.599606215686435;0.07591369535475678;-2583.3333333333335;2583.4092470286882
0.46800000000000036;-8220490824.0;-8251776123.0;385733.0;4799.932568719753;4769.5381121460905;53.53794397158708;0.07689639005548088;1416.6666666666667;-1416.5897702766113
0.47200000000000036;-8201291092.0;-8232506104.0;315445.0;4799.932880234651;4821.648940771077;-2.7898594632051754;0.0778787243689294;1000.0;-999.9221212756311
0.47600000000000037;-8182091358.0;-8213296509.0;305581.0;4799.93319566792;4826.191950078584;-7.924399650299165;0.0788583172379731;2500.0;-2499.921141682762
0.48000000000000037;-8162891623.0;-8194070435.0;279240.0;4799.93351502158;4802.750996036693;13.936407437015077;0.07983841510394996;2666.6666666666665;-2666.5868282515626
0.4840000000000004;-8143691887.0;-8174888306.0;296845.0;4799.933838290729;4800.652514520265;17.091505918136136;0.0808172871984425;500.0;-499.91918271280156
0.4880000000000004;-8124492149.0;-8155777588.0;385863.0;4799.934165472766;4775.629429305066;47.45599201643381;0.08179550923159695;-583.3333333333334;583.415128842565
