Zeit[sec];Sollposition[°];Istposition[°];Positionsschleppfehler[°];Sollgeschwindigkeit[°/s];Istgeschwindigkeit[°/s];Geschwindigkeitsdifferenz[°/s];Sollbeschleunigung[°/s*s];Istbeschleunigung[°/s*s];Beschleunigungsdifferenz[°/s*s]
0.0;9817499999.0;9817500003.0;-4.0;0.0;-0.00023999999999999998;0.0;0.0;0.0;0.0
0.004;9817499999.0;9817500003.0;-4.0;0.0;-0.00023999999999999998;0.0;0.0;0.0;0.0
0.008;9817499999.0;9817500003.0;-4.0;0.0;-0.00023999999999999998;0.0;0.0;0.0;0.0
0.012;9817499999.0;9817500003.0;-4.0;0.0;-0.00023999999999999998;0.0;0.0;0.0;0.0
0.016;9817499999.0;9817500003.0;-4.0;0.0;-0.00023999999999999998;0.0;0.0;0.0;0.0
0.02;9817499999.0;9817500003.0;-4.0;0.0;-0.00023999999999999998;0.0;0.0;0.0;0.0
0.024;9817499999.0;9817500003.0;-4.0;0.0;-0.00023999999999999998;0.0;0.0;0.0;0.0
0.028;9817499999.0;9817500003.0;-4.0;0.0;-0.00023999999999999998;0.0;0.0;0.0;0.0
0.032;9817499999.0;9817500003.0;-4.0;0.0;-0.00023999999999999998;0.0;0.0;0.0;0.0
0.036000000000000004;9817499999.0;9817500003.0;-4.0;0.0;-0.00023999999999999998;0.0;0.0;0.0;0.0
0.04000000000000001;9817499999.0;9817500003.0;-4.0;0.0;-0.00023999999999999998;0.0;0.0;0.0;0.0
0.04400000000000001;9817499999.0;9817500003.0;-4.0;0.0;-0.00023999999999999998;0.0;0.0;0.0;0.0
0.048000000000000015;9817499999.0;9817500003.0;-4.0;0.0;-0.00023999999999999998;0.0;0.0;0.0;0.0
0.05200000000000002;9817499999.0;9817500003.0;-4.0;6.415337515533806e-08;-0.00023999999999999998;0.0;1.6038343788834516e-05;0.0;1.6038343788834516e-05
0.05600000000000002;9817499999.0;9817500003.0;-4.0;6.403982935860294e-07;-0.00023999999999999998;6.415337515532733e-08;0.00014406122960767282;0.0;0.00014406122960767282
0.060000000000000026;9817388466.0;9817500003.0;-4.0;-27.88309253810756;-0.00023993584662484465;5.762449184307131e-07;-6970.773294626464;0.0;-6970.773294626464
0.06400000000000003;9817231896.0;9817500003.0;-111537.0;-39.142484200390435;-0.00023935960170641394;-34.57507317850585;-2814.847915570718;0.0;-2814.847915570718
0.06800000000000003;9816993544.0;9817361702.0;-129806.0;-59.58809911256761;-34.57531253810756;-12.355531662282871;-5111.403728044294;-83.33333333333333;-5028.070394710961
0.07200000000000004;9816701816.0;9817173979.0;-180435.0;-72.93200267263663;-46.93084420039043;-23.483354912177184;-3335.975890017254;-166.66666666666666;-3169.309223350587
0.07600000000000004;9816394082.0;9816892323.0;-190507.0;-76.93351236961428;-70.41419911256762;-13.94822356006901;-1000.3774242444124;-333.3333333333333;-667.044090911079
0.08000000000000004;9816084225.0;9816554874.0;-160792.0;-77.46406068591885;-84.36242267263663;-2.2186096969776514;-132.63707907614375;-500.0;367.3629209238562
0.08400000000000005;9815769943.0;9816208550.0;-124325.0;-78.57057091939421;-86.58103236961428;1.6574716836954195;-276.6275583688405;-666.6666666666666;390.03910829782615
0.08800000000000005;9815459569.0;9815868856.0;-98913.0;-77.5934500888725;-84.92356068591886;0.41820976652464026;244.28020763042824;-666.6666666666666;910.9468742970948
0.09200000000000005;9815179535.0;9815530835.0;-71266.0;-70.00849886364661;-84.50535091939422;2.6359408305217187;1896.2378063064734;-666.6666666666666;2562.90447297314
0.09600000000000006;9814950770.0;9815203358.0;-23823.0;-57.19133600465638;-81.8694100888725;10.431531225225896;3204.2907147475576;-583.3333333333334;3787.624048080891
0.10000000000000006;9814783329.0;9814917607.0;33163.0;-41.86013499198039;-71.4378788636466;16.236322858990228;3832.8002531689976;-666.6666666666666;4499.466919835664
0.10400000000000006;9814689998.0;9814696801.0;86528.0;-23.332950604967483;-55.201556004656375;18.533101012675985;4631.796096753226;-500.0;5131.796096753226
0.10800000000000007;9814673805.0;9814550128.0;139870.0;-4.048092628793274;-36.66845499198039;21.727704387012906;4821.214494043552;-500.0;5321.214494043552
0.11200000000000007;9814723975.0;9814490365.0;183440.0;12.542460273028878;-14.940750604967484;21.89905797617421;4147.638225455538;-250.0;4397.638225455538
0.11600000000000008;9814829920.0;9814518198.0;205777.0;26.486293913925817;6.958307371206725;17.930772901822152;3485.9584102242347;-166.66666666666666;3652.6250768909013
0.12000000000000008;9814980723.0;9814617754.0;212166.0;37.70071167036964;24.889080273028878;14.327173640896934;2803.6044391109563;83.33333333333333;2720.2711057776232
0.12400000000000008;9815168085.0;9814774619.0;206104.0;46.840491957203554;39.21625391392581;10.850697756443829;2284.945071708478;166.66666666666666;2118.2784050418113
0.12800000000000009;9815393560.0;9814974886.0;193199.0;56.368799774533386;50.06695167036964;8.365480286833915;2382.076954332458;333.3333333333333;2048.7436209991247
0.1320000000000001;9815658470.0;9815208615.0;184945.0;66.22734496516019;58.432431957203555;9.03306781732983;2464.6362976566998;416.6666666666667;2047.969630990033
0.1360000000000001;9815953080.0;9815478476.0;179994.0;73.65251636791433;67.46549977453338;9.561485190626797;1856.2928506885364;500.0;1356.2928506885364
0.1400000000000001;9816259626.0;9815786583.0;166497.0;76.63647240475336;77.02698496516018;6.615351402754143;745.989009209758;500.0;245.98900920975808
0.1440000000000001;9816562731.0;9816121152.0;138474.0;75.77625365555993;83.64233636791433;1.3025760368390422;-215.05468729835897;583.3333333333334;-798.3880206316924
0.1480000000000001;9816849268.0;9816460931.0;101800.0;71.63425424132866;84.94491240475337;-3.0606587491934363;-1035.499853557816;583.3333333333334;-1618.8331868911496
0.1520000000000001;9817103581.0;9816788468.0;60800.0;63.578298153927754;81.88425365555993;-6.601999414231273;-2013.989021850227;666.6666666666666;-2680.6556885168934
0.1560000000000001;9817317423.0;9817089597.0;13984.0;53.46043023981513;75.28225424132866;-10.8649160874009;-2529.466978528156;583.3333333333334;-3112.800311861489
0.16000000000000011;9817499999.0;9817347266.0;-29843.0;45.64420731606836;64.41733815392776;-12.747487914112625;-1954.0557309366927;583.3333333333334;-2537.389064270026
0.16400000000000012;9817615032.0;9817553945.0;-53946.0;28.758090754802588;51.66985023981513;-9.26240292374677;-4221.529140316443;416.6666666666667;-4638.19580698311
0.16800000000000012;9817694252.0;9817723574.0;-108542.0;19.80507947315216;42.407447316068364;-20.161876561265775;-2238.2528204126074;333.3333333333333;-2571.5861537459405
0.17200000000000013;9817737495.0;9817812556.0;-118304.0;10.810786360375971;22.24557075480259;-9.538731281650431;-2248.573278194047;250.0;-2498.573278194047
0.17600000000000013;9817758977.0;9817863383.0;-125888.0;5.370344677065492;12.706839473152158;-9.449333112776186;-1360.1104208276197;166.66666666666666;-1526.7770874942864
0.18000000000000013;9817770827.0;9817876413.0;-117436.0;2.9626381146822434;3.257506360375972;-4.93332168331048;-601.9266405958122;83.33333333333333;-685.2599739291454
0.18400000000000014;9817780784.0;9817869710.0;-98883.0;2.489095791221095;-1.6758153229345076;-1.2945265623832487;-118.38558086528705;0.0;-118.38558086528705
0.18800000000000014;9817792277.0;9817857829.0;-77045.0;2.8732216703657394;-2.9703418853177563;0.8367376765388514;96.03146978616107;0.0;96.03146978616107
0.19200000000000014;9817805843.0;9817849295.0;-57018.0;3.391493191725967;-2.133604208778905;1.5857458791446444;129.56788034005694;0.0;129.56788034005694
0.19600000000000015;9817820697.0;9817847104.0;-41261.0;3.713569833312815;-0.5478583296342605;1.4636915213602277;80.51916039671192;83.33333333333333;-2.814172936621409
0.20000000000000015;9817835832.0;9817850767.0;-30070.0;3.7838924576106936;0.9158331917259672;0.9935366415868478;17.58065607446968;250.0;-232.4193439255303
0.20400000000000015;9817850531.0;9817858404.0;-22572.0;3.6746379723956824;1.909369833312815;0.5202026242978786;-27.31362130375281;416.6666666666667;-443.9802879704195
0.20800000000000016;9817864451.0;9817868122.0;-17591.0;3.480048355407309;2.4295724576106936;0.1896055147849891;-48.64740424709335;583.3333333333334;-631.9807375804268
0.21200000000000016;9817877518.0;9817878598.0;-14147.0;3.2667346788680565;2.6191779723956827;0.012050383011626309;-53.32841913481312;666.6666666666666;-719.9950858014797
0.21600000000000016;9817889778.0;9817889122.0;-11604.0;3.0649768870614813;2.631228355407309;-0.060733676539252546;-50.43944795164379;666.6666666666666;-717.1061146183105
0.22000000000000017;9817901470.0;9817899403.0;-9625.0;2.9229865553709495;2.5704946788680565;-0.08301779180657531;-35.497582922632944;666.6666666666666;-702.1642495892995
0.22400000000000017;9817913051.0;9817909352.0;-7882.0;2.895217762109265;2.487476887061481;-0.03741033169053143;-6.942198315421089;666.6666666666666;-673.6088649820878
0.22800000000000017;9817924797.0;9817919152.0;-6101.0;2.9364689639724912;2.4500665553709498;0.07909120673831538;10.312800465806514;666.6666666666666;-656.3538662008601
0.23200000000000018;9817940462.0;9817929268.0;-4471.0;3.9162649198397688;2.529157762109265;0.13905120186322595;244.94898896681937;583.3333333333334;-338.384344366514
0.23600000000000018;9817969014.0;9817939940.0;522.0;7.13800376802702;2.668208963972491;1.2793759558672777;805.4347120468128;416.6666666666667;388.76804538014613
0.24000000000000019;9818016072.0;9817955730.0;13284.0;11.764543931118036;3.947584919839769;3.9874588481872513;1156.6350407727539;333.3333333333333;823.3017074394206
0.2440000000000002;9818085520.0;9817987470.0;28602.0;17.362139224245265;7.93504376802702;5.545620163091016;1399.3988232818074;166.66666666666666;1232.7321566151406
0.2480000000000002;9818186150.0;9818041392.0;44128.0;25.157282312919804;13.480663931118036;6.52915529312723;1948.7857721686348;0.0;1948.7857721686348
0.25200000000000017;9818320946.0;9818121431.0;64719.0;33.699202549353046;20.009819224245266;9.030603088674539;2135.4800591083103;-83.33333333333333;2218.813392441644
0.25600000000000017;9818483516.0;9818237592.0;83354.0;40.642386763056685;29.040422312919805;9.660020236433237;1735.7960534259096;-166.66666666666666;1902.4627200925763
0.2600000000000002;9818666651.0;9818392393.0;91123.0;45.78372402163579;38.70044254935304;7.409324213703641;1285.3343146447767;-166.66666666666666;1452.0009813114434
0.2640000000000002;9818862585.0;9818576832.0;89819.0;48.98355526914461;46.10976676305668;5.063097258579106;799.9578118772046;-166.66666666666666;966.6244785438713
0.2680000000000002;9819059990.0;9818781523.0;81062.0;49.351129276886674;51.17286402163579;2.6744112475088215;91.89350193551604;-166.66666666666666;258.56016860218267
0.2720000000000002;9819246246.0;9818996912.0;63078.0;46.564075465000236;53.84727526914461;-0.7114659922579349;-696.7634529716094;-166.66666666666666;-530.0967863049427
0.2760000000000002;9819413897.0;9819209455.0;36791.0;41.91276223736294;53.135809276886675;-4.3642738118864415;-1162.8283069093238;-250.0;-912.8283069093239
0.2800000000000002;9819557668.0;9819404541.0;9356.0;35.94272926218591;48.771535465000234;-6.297413227637293;-1492.5082437942585;-250.0;-1242.5082437942585
0.2840000000000002;9819669032.0;9819574437.0;-16769.0;27.841038373298108;42.47412223736294;-7.537532975177037;-2025.4227222219497;-250.0;-1775.4227222219497
0.2880000000000002;9819745172.0;9819714183.0;-45151.0;19.035080286211464;34.936589262185905;-9.804610888887797;-2201.489521771661;-250.0;-1951.489521771661
0.2920000000000002;9819781436.0;9819814710.0;-69538.0;9.065841251051452;25.131978373298107;-10.269178087086644;-2492.309758790003;-250.0;-2242.309758790003
0.2960000000000002;9819759355.0;9819874161.0;-92725.0;-5.520176852489442;14.862800286211463;-11.36045903516001;-3646.5045258852238;-250.0;-3396.5045258852238
0.3000000000000002;9819668785.0;9819888170.0;-128815.0;-22.642398688715627;3.502341251051453;-16.751418103540892;-4280.555459056546;-166.66666666666666;-4113.888792389879
0.3040000000000002;9819517750.0;9819835174.0;-166389.0;-37.758838799365215;-13.249076852489441;-19.376661836226187;-3779.110027662397;-166.66666666666666;-3612.4433609957305
0.3080000000000002;9819317876.0;9819704672.0;-186922.0;-49.96853105169423;-32.62573868871563;-16.348420110649585;-3052.4230630822535;-166.66666666666666;-2885.7563964155866
0.3120000000000002;9819082236.0;9819508776.0;-190900.0;-58.90995409685971;-48.97415879936521;-12.448372252329015;-2235.3557612913696;-333.3333333333333;-1902.0224279580364
0.3160000000000002;9818828039.0;9819263086.0;-180850.0;-63.54924431945316;-61.42253105169423;-8.338423045165477;-1159.822555648363;-416.6666666666667;-743.1558889816963
0.32000000000000023;9818569821.0;9818984043.0;-156004.0;-64.5546398408566;-69.7609540968597;-3.1485302225934504;-251.34888035085902;-500.0;248.65111964914098
0.32400000000000023;9818310058.0;9818692406.0;-122585.0;-64.94054831265044;-72.90948431945316;0.9997444785965683;-96.47711794846003;-500.0;403.52288205153997
0.32800000000000024;9818053411.0;9818404768.0;-94710.0;-64.16188922992917;-71.90973984085659;1.2865915282061593;194.6647706803155;-500.0;694.6647706803155
0.33200000000000024;9817825323.0;9818122276.0;-68865.0;-57.02184295724694;-70.62314831265043;2.329359082721254;1785.0115681705586;-500.0;2285.0115681705583
0.33600000000000024;9817654265.0;9817849101.0;-23778.0;-42.76450044033585;-68.29378922992917;9.845266272682238;3564.3356292277717;-500.0;4064.3356292277717
0.34000000000000025;9817499999.0;9817615307.0;38958.0;-38.56647781698247;-58.44852295724694;18.021502516911085;1049.5056558383453;-500.0;1549.5056558383453
0.34400000000000025;9817499999.0;9817453599.0;46400.0;0.0;-40.42702044033585;4.644542623353381;9641.619454245618;-416.6666666666667;10058.286120912284
0.34800000000000025;9817499999.0;9817310470.0;189529.0;0.0;-35.78247781698247;47.15421781698247;0.0;-333.3333333333333;333.3333333333333
0.35200000000000026;9817499999.0;9817355956.0;144043.0;0.0;11.371739999999999;-2.7291600000000003;0.0;-166.66666666666666;166.66666666666666
0.35600000000000026;9817499999.0;9817390526.0;109473.0;0.0;8.642579999999999;-2.0741999999999994;0.0;-83.33333333333333;83.33333333333333
0.36000000000000026;9817499999.0;9817416799.0;83200.0;0.0;6.568379999999999;-1.5763799999999994;0.0;0.0;0.0
0.36400000000000027;9817499999.0;9817436767.0;63232.0;0.0;4.992;-1.1980800000000005;0.0;83.33333333333333;-83.33333333333333
0.36800000000000027;9817499999.0;9817451942.0;48057.0;0.0;3.7939199999999995;-0.9104999999999999;0.0;83.33333333333333;-83.33333333333333
0.3720000000000003;9817499999.0;9817463475.0;36524.0;0.0;2.8834199999999996;-0.69198;0.0;0.0;0.0
0.3760000000000003;9817499999.0;9817472240.0;27759.0;0.0;2.1914399999999996;-0.5258999999999998;0.0;-83.33333333333333;83.33333333333333
0.3800000000000003;9817499999.0;9817478902.0;21097.0;0.0;1.6655399999999998;-0.39971999999999985;0.0;-166.66666666666666;166.66666666666666
0.3840000000000003;9817499999.0;9817483965.0;16034.0;0.0;1.26582;-0.30378000000000005;0.0;-83.33333333333333;83.33333333333333
0.3880000000000003;9817499999.0;9817487813.0;12186.0;0.0;0.9620399999999999;-0.23087999999999997;0.0;-250.0;250.0
0.3920000000000003;9817499999.0;9817490737.0;9262.0;0.0;0.7311599999999999;-0.17543999999999993;0.0;-250.0;250.0
0.3960000000000003;9817499999.0;9817492959.0;7040.0;0.0;0.55572;-0.13332000000000005;0.0;-416.6666666666667;416.6666666666667
0.4000000000000003;9817499999.0;9817494648.0;5351.0;0.0;0.42239999999999994;-0.10133999999999999;0.0;-333.3333333333333;333.3333333333333
0.4040000000000003;9817499999.0;9817495932.0;4067.0;-5.67728983675558e-10;0.32105999999999996;-0.07703999999999997;-1.419322459188895e-07;-416.6666666666667;416.66666652473447
0.4080000000000003;9817577006.0;9817496908.0;3091.0;19.251584117069342;0.24402;-0.058560000567728976;4812.896029409268;-333.3333333333333;5146.229362742601
0.4120000000000003;9817685101.0;9817497649.0;79357.0;27.02368430350743;0.185459999432271;23.82754411763707;1943.025046609522;-416.6666666666667;2359.6917132761887
0.4160000000000003;9817849804.0;9817593701.0;91400.0;41.17573707510284;24.013004117069343;8.494680186438089;3538.0131928988517;-250.0;3788.0131928988517
0.4200000000000003;9818051811.0;9817723731.0;126073.0;50.50175431990319;32.50768430350743;16.232432771595406;2331.5043112000885;-166.66666666666666;2498.1709778667555
0.4240000000000003;9818265871.0;9817918691.0;133120.0;53.515043428433586;48.74011707510284;9.748837244800356;753.3222771325985;83.33333333333333;669.9889437992651
0.4280000000000003;9818483216.0;9818152646.0;113225.0;54.33642517258462;58.48895431990319;1.8195891085303941;205.34543603775825;250.0;-44.65456396224177
0.43200000000000033;9818706523.0;9818393880.0;89336.0;55.82669999269853;60.30854342843359;-0.6119582558489682;372.5687050284776;416.6666666666667;-44.097961638189076
0.43600000000000033;9818931373.0;9818632666.0;73857.0;56.21232204635556;59.69658517258462;0.5615348201139057;96.40551341425763;583.3333333333334;-486.9278199190758
0.44000000000000034;9819140924.0;9818873698.0;57675.0;52.3877847390358;60.258119992698525;-0.585297946342962;-956.1343268299396;750.0;-1706.1343268299397
0.44400000000000034;9819321938.0;9819112389.0;28535.0;45.25366036449386;59.67282204635556;-5.572937307319762;-1783.5310936354851;833.3333333333334;-2616.8644269688184
0.44800000000000034;9819467860.0;9819328788.0;-6850.0;36.48035391548124;54.0998847390358;-9.257224374541941;-2193.3266122531554;833.3333333333334;-3026.659945586489
0.45200000000000035;9819568880.0;9819508158.0;-40298.0;25.25494087289624;44.84266036449386;-10.780186449012618;-2806.35326064625;833.3333333333334;-3639.6865939795834
0.45600000000000035;9819621445.0;9819644407.0;-75527.0;13.141457466132664;34.06247391548124;-13.339153042585004;-3028.3708516908937;833.3333333333334;-3861.704185024227
0.46000000000000035;9819631445.0;9819727300.0;-105855.0;2.4997807686221;20.723320872896238;-13.933163406763573;-2660.419174377641;833.3333333333334;-3493.7525077109744
0.46400000000000036;9819603896.0;9819754460.0;-123015.0;-6.8871836739998615;6.790157466132665;-11.671276697510564;-2346.7411106554905;666.6666666666666;-3013.407777322157
0.46800000000000036;9819544130.0;9819734936.0;-131040.0;-14.941509115736746;-4.8811192313779;-9.868464442621962;-2013.581360434221;583.3333333333334;-2596.9146937675546
0.47200000000000036;9819457154.0;9819675938.0;-131808.0;-21.743914479453824;-14.749583673999862;-8.100405441736886;-1700.6013409292696;416.6666666666667;-2117.268007595936
0.47600000000000037;9819342181.0;9819584539.0;-127385.0;-28.743344327424662;-22.849989115736747;-6.537025363717078;-1749.8574619927094;250.0;-1999.8574619927094
0.48000000000000037;9819197573.0;9819466991.0;-124810.0;-36.15204638641609;-29.387014479453825;-6.844929847970839;-1852.1755147478566;0.0;-1852.1755147478566
0.4840000000000004;9819028352.0;9819322064.0;-124491.0;-42.30514639172145;-36.231944327424664;-7.389562058991423;-1538.2750013263403;-166.66666666666666;-1371.6083346596738
0.4880000000000004;9818845699.0;9819147578.0;-119226.0;-45.66328615826094;-43.62150638641609;-5.8372000053053625;-839.5349416348719;-333.3333333333333;-506.20160830153856
0.4920000000000004;9818659313.0;9818949744.0;-104045.0;-46.59631940213011;-49.45870639172145;-2.447279766539488;-233.25831096729388;-416.6666666666667;183.4083556993728
0.4960000000000004;9818477987.0;9818742121.0;-82808.0;-45.33170836207257;-51.90598615826094;0.34118675613082416;316.15276001438633;-416.6666666666667;732.819426681053
0.5000000000000003;9818314578.0;9818535862.0;-57875.0;-40.85227075616114;-51.56479940213011;2.760591040057548;1119.859401477857;-416.6666666666667;1536.5260681445238
0.5040000000000003;9818177243.0;9818340646.0;-26068.0;-34.3336539831747;-48.804208362072565;6.387857605911428;1629.6541932466102;-416.6666666666667;2046.320859913277
0.5080000000000003;9818067515.0;9818170981.0;6262.0;-27.431973786727998;-42.41635075616114;8.458416772986439;1725.4200491116753;-416.6666666666667;2142.086715778342
0.5120000000000003;9817988212.0;9818035150.0;32365.0;-19.82584979714344;-33.9579339831747;8.4678601964467;1901.5309973961391;-333.3333333333333;2234.8643307294724
0.5160000000000003;9817939380.0;9817933190.0;55022.0;-12.20797545180468;-25.490073786727997;8.965543989584557;1904.4685863346901;-250.0;2154.4685863346904
