Zeit[sec];Sollposition[°];Istposition[°];Positionsschleppfehler[°];Sollgeschwindigkeit[°/s];Istgeschwindigkeit[°/s];Geschwindigkeitsdifferenz[°/s];Sollbeschleunigung[°/s*s];Istbeschleunigung[°/s*s];Beschleunigungsdifferenz[°/s*s]
0.0;0.0;-2.0;2.0;-0.0;0.000192;0.0;0.0;0.0;0.0
0.004;0.0;-2.0;2.0;-0.0;0.000192;0.0;0.0;0.0;0.0
0.008;0.0;-2.0;2.0;-0.0;0.000192;0.0;0.0;0.0;0.0
0.012;0.0;-2.0;2.0;-0.0;0.000192;0.0;0.0;0.0;0.0
0.016;0.0;-2.0;2.0;-0.0;0.000192;0.0;0.0;0.0;0.0
0.02;0.0;-2.0;2.0;-0.0;0.000192;0.0;0.0;0.0;0.0
0.024;0.0;-2.0;2.0;-0.0;0.000192;0.0;0.0;0.0;0.0
0.028;0.0;-2.0;2.0;-0.0;0.000192;0.0;0.0;0.0;0.0
0.032;0.0;-2.0;2.0;-0.0;0.000192;0.0;0.0;0.0;0.0
0.036000000000000004;0.0;-2.0;2.0;-0.0;0.000192;0.0;0.0;0.0;0.0
0.04000000000000001;0.0;-2.0;2.0;-0.0;0.000192;0.0;0.0;0.0;0.0
0.04400000000000001;0.0;-2.0;2.0;-0.0;0.000192;0.0;0.0;0.0;0.0
0.048000000000000015;0.0;-2.0;2.0;-0.0;0.000192;0.0;0.0;0.0;0.0
0.05200000000000002;0.0;-2.0;2.0;4.3545562972424124e-24;0.000192;0.0;1.088639074310603e-21;0.0;1.088639074310603e-21
0.05600000000000002;0.0;-2.0;2.0;3.4686970982608526e-23;0.000192;0.0;7.583103671341529e-21;0.0;7.583103671341529e-21
0.060000000000000026;0.0;-2.0;2.0;1.352174960203932e-22;0.000192;0.0;2.5132631259446168e-20;0.0;2.5132631259446168e-20
0.06400000000000003;0.0;-2.0;2.0;3.434493339008069e-22;0.000192;0.0;5.205795947010343e-20;0.0;5.205795947010343e-20
0.06800000000000003;0.0;-2.0;2.0;6.3600527314003625e-22;0.000192;0.0;7.313898480980734e-20;0.0;7.313898480980734e-20
0.07200000000000004;67047.0;-2.0;2.0;16.76184563360698;0.000192;0.0;4190.461408401745;0.0;4190.461408401745
0.07600000000000004;98255.0;-2.0;67049.0;7.802119313537946;0.000192;23.19835763360698;-2239.931580017259;0.0;-2239.931580017259
0.08000000000000004;130630.0;92792.0;5463.0;8.09374083165009;23.19854963360698;-14.871982320069034;72.90537952803588;0.0;72.90537952803588
0.08400000000000005;163236.0;126098.0;4532.0;8.151539742365136;8.326567313537947;0.20224551811214297;14.449727678761626;0.0;14.449727678761626
0.08800000000000005;195438.0;160213.0;3023.0;8.050274298787372;8.52881283165009;-0.0870650892849536;-25.316360894441114;83.33333333333333;-108.64969422777445
0.09200000000000005;225299.0;193979.0;1459.0;7.4653284975206855;8.441747742365136;-0.2514094435777636;-146.23645031667155;83.33333333333333;-229.56978365000487
0.09600000000000006;250305.0;226740.0;-1441.0;6.251465356600131;8.190338298787372;-0.8633458012666866;-303.4657852301386;83.33333333333333;-386.7991185634719
0.10000000000000006;268690.0;256047.0;-5742.0;4.5963340847898415;7.326992497520686;-1.6267591409205542;-413.78281795257243;83.33333333333333;-497.11615128590574
0.10400000000000006;279241.0;278847.0;-10157.0;2.6376381324446148;5.7002333566001315;-2.07897127181029;-489.6739880863067;83.33333333333333;-573.00732141964
0.10800000000000007;281314.0;293332.0;-14091.0;0.5184273627240708;3.6212620847898416;-2.3363599523452265;-529.802692430136;83.33333333333333;-613.1360257634693
0.11200000000000007;275508.0;298471.0;-17157.0;-1.451617836517686;1.2849021324446148;-2.4135467697205444;-492.5112998104392;0.0;-492.5112998104392
0.11600000000000008;263409.0;293957.0;-18449.0;-3.0246684461352302;-1.1286446372759293;-2.094077199241757;-393.2626524043861;0.0;-393.2626524043861
0.12000000000000008;246777.0;281067.0;-17658.0;-4.1579723291819075;-3.222721836517686;-1.4971146096175438;-283.32597076166934;0.0;-283.32597076166934
0.12400000000000008;226915.0;262188.0;-15411.0;-4.965471219476076;-4.71983644613523;-0.9175918830466774;-201.87472257354221;0.0;-201.87472257354221
0.12800000000000009;204362.0;239639.0;-12724.0;-5.638338885776659;-5.637428329181907;-0.5495468902941694;-168.21691657514572;-83.33333333333333;-84.88358324181237
0.1320000000000001;179124.0;214892.0;-10530.0;-6.309419152206369;-6.186975219476077;-0.46224366630058267;-167.77006660742754;-83.33333333333333;-84.43673327409422
0.1360000000000001;151022.0;188296.0;-9172.0;-7.025719099864412;-6.649218885776659;-0.5407122664297104;-179.07498691451073;-83.33333333333333;-95.7416535811774
0.1400000000000001;119734.0;159537.0;-8515.0;-7.821851925336108;-7.18993115220637;-0.6532279476580429;-199.03320636792387;0.0;-199.03320636792387
0.1440000000000001;85092.0;128165.0;-8431.0;-8.660554754802828;-7.843159099864413;-0.7880688254716945;-209.67570736667994;0.0;-209.67570736667994
0.1480000000000001;47470.0;93641.0;-8549.0;-9.405573608100104;-8.631227925336107;-0.8500308294667196;-186.25471332431908;-83.33333333333333;-102.92137999098576
0.1520000000000001;0.0;55716.0;-8246.0;-11.86752599662949;-9.481258754802827;-0.7159308532972766;-615.4880971323466;-83.33333333333333;-532.1547637990133
0.1560000000000001;0.0;14928.0;-14928.0;-1.3048635001814648e-26;-10.197189608100103;-3.103424388529387;2966.8814991573727;-83.33333333333333;3050.214832490706
0.16000000000000011;-73685.0;-38274.0;38274.0;-18.421445641549276;-13.30061399662949;16.97491799662949;-4605.361410387319;0.0;-4605.361410387319
0.16400000000000012;-112808.0;-23577.0;-50108.0;-9.780604421212;3.6743040000000002;-26.906117641549276;2160.210305084319;0.0;2160.210305084319
0.16800000000000012;-149299.0;-116504.0;3696.0;-9.122781926870765;-23.231813641549277;13.806025220337276;164.45562358530896;0.0;164.45562358530896
0.17200000000000013;-182323.0;-154207.0;4908.0;-8.255941749230399;-9.425788421212001;0.7741744943412368;216.71004441009157;-83.33333333333333;300.0433777434249
0.17600000000000013;-211205.0;-188813.0;6490.0;-7.220555281218149;-8.651613926870764;1.0187121776403654;258.8466170030623;-83.33333333333333;342.1799503363957
0.18000000000000013;-235574.0;-219344.0;8139.0;-6.092288558097802;-7.632901749230399;1.1936904680122495;282.0666807800869;-83.33333333333333;365.40001411342024
0.18400000000000014;-255535.0;-245100.0;9526.0;-4.990145114303251;-6.4392112812181495;1.2614187231203475;275.5358609486376;0.0;275.5358609486376
0.18800000000000014;-271472.0;-265811.0;10276.0;-3.9843361776860546;-5.177792558097802;1.1741434437945504;251.4522341542992;-83.33333333333333;334.78556748763253
0.19200000000000014;-283909.0;-281825.0;10353.0;-3.1091492660416704;-4.0036491143032515;1.013200936617197;218.79672791109607;-83.33333333333333;302.1300612444294
0.19600000000000015;-293477.0;-293786.0;9877.0;-2.39203517385171;-2.9904481776860545;0.8294909116443843;179.27852304749015;-83.33333333333333;262.6118563808235
0.20000000000000015;-300785.0;-302429.0;8952.0;-1.8270744436934776;-2.1609572660416703;0.6283140921899606;141.24018253955805;0.0;141.24018253955805
0.20400000000000015;-306308.0;-308559.0;7774.0;-1.3808884595735629;-1.5326431738517097;0.45187273015823193;111.54649602997868;0.0;111.54649602997868
0.20800000000000016;-310374.0;-312882.0;6574.0;-1.0163484502838187;-1.0807704436934777;0.33098598411991487;91.13500232243604;-83.33333333333333;174.46833565576938
0.21200000000000016;-313180.0;-315881.0;5507.0;-0.7015817193875931;-0.7497844595735629;0.2621080092897442;78.6916827240564;-83.33333333333333;162.02501605738973
0.21600000000000016;-314845.0;-317831.0;4651.0;-0.4160762093693446;-0.4876764502838187;0.23259073089622562;71.37637750456211;-83.33333333333333;154.70971083789544
0.22000000000000017;-315444.0;-318851.0;4006.0;-0.14980412657627754;-0.25508571938759306;0.2235855100182485;66.56802069826676;-83.33333333333333;149.90135403160008
0.22400000000000017;-315030.0;-318977.0;3533.0;0.1035053560803424;-0.031500209369344556;0.22086408279306705;63.327370664154984;-83.33333333333333;146.66070399748833
0.22800000000000017;-313632.0;-318220.0;3190.0;0.3493418231059091;0.1893638734237225;0.22038148265661991;61.45911675639167;-83.33333333333333;144.792450089725
0.23200000000000018;-311260.0;-316582.0;2950.0;0.5930137198707562;0.4097453560803424;0.2227964670255667;60.91797419121178;0.0;60.91797419121178
0.23600000000000018;-307895.0;-314052.0;2792.0;0.8413624614930376;0.6325418231059091;0.22850389676484706;62.087185405570345;0.0;62.087185405570345
0.24000000000000019;-303493.0;-310608.0;2713.0;1.1005149267976135;0.8610457198707562;0.24076474162228134;64.78811632614398;0.0;64.78811632614398
0.2440000000000002;-297992.0;-306201.0;2708.0;1.375077134201714;1.1018104614930375;0.258672465304576;68.64055185102514;0.0;68.64055185102514
0.2480000000000002;-291297.0;-300760.0;2768.0;1.673926064335536;1.3604829267976135;0.2803222074041005;74.71223253345549;0.0;74.71223253345549
0.25200000000000017;-283283.0;-294197.0;2900.0;2.0033425920803074;1.640805134201714;0.311520930133822;82.35413193619284;0.0;82.35413193619284
0.25600000000000017;-273774.0;-286388.0;3105.0;2.3773398681990927;1.952326064335536;0.3490965277447715;93.49931902969632;0.0;93.49931902969632
0.2600000000000002;-262396.0;-277183.0;3409.0;2.844473818778611;2.3014225920803075;0.4031812761187852;116.78348764487956;83.33333333333333;33.45015431154623
0.2640000000000002;-248643.0;-266365.0;3969.0;3.4383369808788173;2.7046038681990927;0.5208939505795183;148.4657905250516;83.33333333333333;65.13245719171827
0.2680000000000002;-232013.0;-253464.0;4821.0;4.157401726082794;3.225497818778611;0.6756551621002065;179.76618630099418;83.33333333333333;96.43285296766084
0.2720000000000002;-211893.0;-237860.0;5847.0;5.030097329001258;3.9011529808788175;0.8175607452039766;218.17390072961595;83.33333333333333;134.84056739628264
0.2760000000000002;-187666.0;-218986.0;7093.0;6.056583754144648;4.718713726082794;0.9923116029184635;256.6216062858475;83.33333333333333;173.28827295251418
0.2800000000000002;-159095.0;-196142.0;8476.0;7.142862589272387;5.711025329001258;1.1592544251433905;271.5697087819349;166.66666666666666;104.90304211526822
0.2840000000000002;-126354.0;-168661.0;9566.0;8.18528280694753;6.870279754144648;1.1909188351277384;260.6050544187857;83.33333333333333;177.27172108545236
0.2880000000000002;-89922.0;-136417.0;10063.0;9.107971516335338;8.061198589272387;1.0901322176751442;230.672177346952;166.66666666666666;64.00551068028534
0.2920000000000002;-50629.0;-99812.0;9890.0;9.823221138711116;9.15133080694753;0.9060807093878083;178.8124055939444;83.33333333333333;95.47907226061108
0.2960000000000002;0.0;-59583.0;8954.0;12.657401112628346;10.057411516335339;0.6253936223757766;708.5449934793075;83.33333333333333;625.2116601459742
0.3000000000000002;0.0;-16852.0;16852.0;-5.8773054456977974e-33;10.682805138711116;3.59238797391723;-3164.3502781570864;83.33333333333333;-3247.68361149042
0.3040000000000002;72449.0;40248.0;-40248.0;18.112252663077452;14.275193112628346;-18.139001112628346;4528.063165769363;83.33333333333333;4444.72983243603
0.3080000000000002;111044.0;24793.0;47656.0;9.64896487864047;-3.863808;26.55103666307745;-2115.8219461092453;83.33333333333333;-2199.155279442579
0.3120000000000002;146372.0;115541.0;-4497.0;8.83186452461697;22.687228663077452;-13.469975784436981;-204.27508850587506;83.33333333333333;-287.6084218392084
0.3160000000000002;177761.0;152410.0;-6038.0;7.847218416790939;9.21725287864047;-0.9650363540235016;-246.1615269565076;166.66666666666666;-412.8281936231743
0.32000000000000023;205011.0;185418.0;-7657.0;6.81254593554736;8.25221652461697;-1.1400701078260296;-258.66812031089495;166.66666666666666;-425.3347869775616
0.32400000000000023;228236.0;213866.0;-8855.0;5.806204045964315;7.11214641679094;-1.1496804812435801;-251.58547239576112;83.33333333333333;-334.91880572909446
0.32800000000000024;247813.0;237715.0;-9479.0;4.894353513924886;5.9624659355473595;-1.066245889583044;-227.9626330098572;83.33333333333333;-311.2959663431905
0.33200000000000024;264197.0;257299.0;-9486.0;4.095944056743219;4.8962200459643155;-0.912522532039429;-199.60236429541678;83.33333333333333;-282.9356976287501
0.33600000000000024;277813.0;273233.0;-9036.0;3.403951910190695;3.9836975139248865;-0.755209457181667;-172.99803663813108;83.33333333333333;-256.3313699714644
0.34000000000000025;288623.0;286146.0;-8333.0;2.7024929669267297;3.2284880567432195;-0.6245041465525247;-175.3647358159913;0.0;-175.3647358159913
0.34400000000000025;295454.0;296561.0;-7938.0;1.7078756657191958;2.6039839101906948;-0.6635389432639651;-248.65432530188346;0.0;-248.65432530188346
0.34800000000000025;296740.0;304322.0;-8868.0;0.32152975491791747;1.9404449669267296;-1.083897301207534;-346.58647770031956;0.0;-346.58647770031956
0.35200000000000026;291533.0;307748.0;-11008.0;-1.3017717728598426;0.8565476657191958;-1.5917859108012782;-405.82538194444004;0.0;-405.82538194444004
0.35600000000000026;279081.0;304808.0;-13275.0;-3.11315379154084;-0.7352382450820825;-1.8409335277777599;-452.84550467024934;0.0;-452.84550467024934
0.36000000000000026;258917.0;294504.0;-15423.0;-5.040916507685469;-2.5761717728598423;-2.0175900186809983;-481.94067903615723;0.0;-481.94067903615723
0.36400000000000027;231779.0;276129.0;-17212.0;-6.784458824557694;-4.593761791540841;-2.099506716144628;-435.88557921805625;0.0;-435.88557921805625
0.36800000000000027;199510.0;249356.0;-17577.0;-8.067188187435091;-6.6932685076854685;-1.7785823168722263;-320.6823407193493;0.0;-320.6823407193493
0.3720000000000003;164201.0;215469.0;-15959.0;-8.827419266865526;-8.471850824557695;-1.1274013628773965;-190.0577698576087;0.0;-190.0577698576087
0.3760000000000003;127988.0;177072.0;-12871.0;-9.053049115426258;-9.599252187435091;-0.46378307943043495;-56.40746214018311;-83.33333333333333;26.925871193150222
0.3800000000000003;93404.0;136820.0;-8832.0;-8.646001507949386;-10.063035266865526;0.16211415143926722;101.76190186921818;-83.33333333333333;185.09523520255152
0.3840000000000003;62714.0;97217.0;-3813.0;-7.672720388365483;-9.900921115426259;0.8888716074768741;243.32027989597572;-166.66666666666666;409.98694656264234
0.3880000000000003;0.0;61169.0;1545.0;-15.678518970374565;-9.012049507949385;1.4876491195839021;-2001.4496455022706;-83.33333333333333;-1918.1163121689372
0.3920000000000003;0.0;31072.0;-31072.0;4.979955684602893e-38;-7.524400388365483;-11.137030582009082;3919.6297425936414;-83.33333333333333;4002.9630759269744
0.3960000000000003;0.0;-43573.0;43573.0;8.368175480614775e-38;-18.661430970374564;22.844438970374565;8.470549490029706e-36;-83.33333333333333;83.33333333333333
0.4000000000000003;0.0;-26841.0;26841.0;6.448524951732712e-38;4.183008;-1.6062720000000001;-4.7991263222051594e-36;-83.33333333333333;83.33333333333333
0.4040000000000003;0.0;-16535.0;16535.0;3.164900945573881e-38;2.576736;-0.9893759999999998;-8.209060015397077e-36;-83.33333333333333;83.33333333333333
0.4080000000000003;0.0;-10186.0;10186.0;6.208147250812849e-39;1.58736;-0.609504;-6.360215551231491e-36;0.0;-6.360215551231491e-36
0.4120000000000003;0.0;-6275.0;6275.0;-6.349006471851944e-39;0.9778560000000001;-0.375456;-3.139288430666198e-36;0.0;-3.139288430666198e-36
0.4160000000000003;0.0;-3866.0;3866.0;-8.869714710259062e-39;0.6024;-0.23126400000000003;-6.301770596017794e-37;0.0;-6.301770596017794e-37
0.4200000000000003;0.0;-2382.0;2382.0;-6.408647479441088e-39;0.371136;-0.142464;6.1526680770449345e-37;-83.33333333333333;83.33333333333333
0.4240000000000003;0.0;-1468.0;1468.0;-2.9249798411545332e-39;0.22867200000000001;-0.08774400000000002;8.709169095716389e-37;-83.33333333333333;83.33333333333333
0.4280000000000003;0.0;-905.0;905.0;-3.949504007852175e-40;0.140928;-0.054048;6.3250736009232895e-37;-83.33333333333333;83.33333333333333
0.43200000000000033;0.0;-558.0;558.0;7.669329701904328e-40;0.08688;-0.033311999999999994;2.904708427439126e-37;0.0;2.904708427439126e-37
0.43600000000000033;0.0;-344.0;344.0;1.257773182679537e-39;0.053568000000000005;-0.020544000000000007;1.2271005312227605e-37;0.0;1.2271005312227605e-37
0.44000000000000034;0.0;-212.0;212.0;3.242179704188892e-39;0.033024;-0.012671999999999996;4.961016303773388e-37;0.0;4.961016303773388e-37
0.44400000000000034;0.0;-131.0;131.0;1.0442347848371083e-38;0.020352000000000002;-0.007776000000000002;1.8000420360455476e-36;-83.33333333333333;83.33333333333333
0.44800000000000034;0.0;-81.0;81.0;2.5700126327879346e-38;0.012576;-0.0048000000000000004;3.8144446198770655e-36;-83.33333333333333;83.33333333333333
0.45200000000000035;0.0;-50.0;50.0;4.647017574682104e-38;0.007776;-0.0029759999999999995;5.192512354735424e-36;-83.33333333333333;83.33333333333333
0.45600000000000035;68410.0;-31.0;31.0;17.102648376206684;0.0048000000000000004;-0.0018240000000000005;4275.662094051671;0.0;4275.662094051671
0.46000000000000035;100346.0;-20.0;68430.0;7.984090535218077;0.002976;23.668952376206683;-2279.639460247152;-83.33333333333333;-2196.3061269138184
0.46400000000000036;133594.0;94667.0;5679.0;8.31197880364691;23.671928376206683;-15.142653840988606;81.97206710720839;0.0;81.97206710720839
0.46800000000000036;167280.0;128784.0;4810.0;8.421299471430995;8.529274535218077;0.24446426842883362;27.330166946021084;0.0;27.330166946021084
0.47200000000000036;200855.0;163878.0;3402.0;8.393852697885475;8.77373880364691;-0.02584733221591584;-6.861693386380097;83.33333333333333;-90.19502671971343
0.47600000000000037;232461.0;198869.0;1986.0;7.901603899933158;8.747891471430995;-0.16338277354551956;-123.06219948807917;83.33333333333333;-206.3955328214125
0.48000000000000037;259637.0;233207.0;-746.0;6.793817425366879;8.584508697885475;-0.754520797952317;-276.94661864156967;83.33333333333333;-360.279951974903
0.4840000000000004;280652.0;264526.0;-4889.0;5.253904841625499;7.829987899933158;-1.5055144745662794;-384.97814593534497;83.33333333333333;-468.3114792686783
0.4880000000000004;294290.0;289823.0;-9171.0;3.4094644589881433;6.324473425366879;-1.9509845837413797;-461.11009565933904;0.0;-461.11009565933904
0.4920000000000004;299854.0;307316.0;-13026.0;1.391058601442963;4.373488841625499;-2.214520382637356;-504.6014643862951;0.0;-504.6014643862951
0.4960000000000004;297867.0;315951.0;-16097.0;-0.49673082982856287;2.1589684589881433;-2.31322185754518;-471.9473578178814;0.0;-471.9473578178814
0.5000000000000003;289847.0;315334.0;-17467.0;-2.005218062441478;-0.15425339855703712;-2.019309431271526;-377.12180815322876;0.0;-377.12180815322876
0.5040000000000003;277488.0;306640.0;-16793.0;-3.0895619197017776;-2.1735628298285627;-1.4437832326129154;-271.08596431507493;83.33333333333333;-354.41929764840825
0.5080000000000003;262029.0;292171.0;-14683.0;-3.8648388922356727;-3.617346062441478;-0.8817838572602996;-193.81924313347378;83.33333333333333;-277.1525764668071
0.5120000000000003;243908.0;274175.0;-12146.0;-4.530209780158747;-4.499129919701778;-0.5317249725338948;-166.3427219807685;83.33333333333333;-249.67605531410183
0.5160000000000003;223002.0;254052.0;-10144.0;-5.2264293675284605;-5.030854892235673;-0.4731788879230736;-174.05489684242846;0.0;-174.05489684242846
0.5200000000000004;198978.0;232036.0;-9034.0;-6.006121804376747;-5.504033780158746;-0.5896595873697148;-194.92310921207155;0.0;-194.92310921207155
0.5240000000000004;171319.0;207662.0;-8684.0;-6.914643028961887;-6.093693367528461;-0.7460924368482855;-227.13030614628505;0.0;-227.13030614628505
0.5280000000000004;139637.0;180303.0;-8984.0;-7.920483533863782;-6.8397858043767465;-0.9373212245851406;-251.46012622547366;0.0;-251.46012622547366
0.5320000000000004;104128.0;149195.0;-9558.0;-8.877372791440049;-7.777107028961887;-1.0609445049018946;-239.2223143940668;0.0;-239.2223143940668
0.5360000000000004;65528.0;113843.0;-9715.0;-9.649906594476542;-8.838051533863782;-0.9719612575762664;-193.13345075912335;-83.33333333333333;-109.80011742579003
0.5400000000000004;0.0;74603.0;-9075.0;-16.382202506731076;-9.810012791440048;-0.7110938030364942;-1683.0739780636334;-83.33333333333333;-1599.7406447303001
0.5440000000000004;0.0;32519.0;-32519.0;5.838258197605123e-42;-10.521106594476542;-8.982919912254534;4095.5506266827692;-83.33333333333333;4178.883960016103
0.5480000000000004;-57598.0;-45497.0;45497.0;-14.39966792692387;-19.504026506731076;23.871738506731077;-3599.9169817309676;0.0;-3599.9169817309676
0.5520000000000004;-96661.0;-28027.0;-29571.0;-9.765706669767294;4.367712;-21.60619592692387;1158.490314289144;0.0;1158.490314289144
0.5560000000000004;-132854.0;-96980.0;319.0;-9.048330579241222;-17.23848392692387;7.503401257156575;179.34402263151793;0.0;179.34402263151793
