Zeit[sec];Sollposition[°];Istposition[°];Positionsschleppfehler[°];Sollgeschwindigkeit[°/s];Istgeschwindigkeit[°/s];Geschwindigkeitsdifferenz[°/s];Sollbeschleunigung[°/s*s];Istbeschleunigung[°/s*s];Beschleunigungsdifferenz[°/s*s]
0.0;0.0;-4.0;4.0;-0.0;0.00023999999999999998;0.0;0.0;0.0;0.0
0.004;0.0;-4.0;4.0;-0.0;0.00023999999999999998;0.0;0.0;0.0;0.0
0.008;0.0;-4.0;4.0;-0.0;0.00023999999999999998;0.0;0.0;0.0;0.0
0.012;0.0;-4.0;4.0;-0.0;0.00023999999999999998;0.0;0.0;0.0;0.0
0.016;0.0;-4.0;4.0;-0.0;0.00023999999999999998;0.0;0.0;0.0;0.0
0.02;0.0;-4.0;4.0;-0.0;0.00023999999999999998;0.0;0.0;0.0;0.0
0.024;0.0;-4.0;4.0;-0.0;0.00023999999999999998;0.0;0.0;0.0;0.0
0.028;0.0;-4.0;4.0;-0.0;0.00023999999999999998;0.0;0.0;0.0;0.0
0.032;0.0;-4.0;4.0;-0.0;0.00023999999999999998;0.0;0.0;0.0;0.0
0.036000000000000004;0.0;-4.0;4.0;-0.0;0.00023999999999999998;0.0;0.0;0.0;0.0
0.04000000000000001;0.0;-4.0;4.0;-0.0;0.00023999999999999998;0.0;0.0;0.0;0.0
0.04400000000000001;0.0;-4.0;4.0;-0.0;0.00023999999999999998;0.0;0.0;0.0;0.0
0.048000000000000015;0.0;-4.0;4.0;-0.0;0.00023999999999999998;0.0;0.0;0.0;0.0
0.05200000000000002;967.0;-4.0;4.0;0.24181403541199237;0.00023999999999999998;0.0;60.45350885299809;0.0;60.45350885299809
0.05600000000000002;10606.0;-4.0;971.0;2.409839573666366;0.00023999999999999998;0.29983403541199233;542.0063845635933;0.0;542.0063845635933
0.060000000000000026;57986.0;1196.0;9410.0;11.844850168554217;0.30007403541199235;2.6743655382543734;2358.752648721963;0.0;2358.752648721963
0.06400000000000003;214469.0;13093.0;44893.0;39.12091761672951;2.974439573666366;11.563990594887851;6819.016862043823;0.0;6819.016862043823
0.06800000000000003;610722.0;71246.0;143223.0;99.06331862765656;14.538430168554218;33.175867448175296;14985.600252731763;0.0;14985.600252731763
0.07200000000000004;1437316.0;262103.0;348619.0;206.64841487357938;47.71429761672951;72.26616101092705;26896.274061480708;166.66666666666666;26729.60739481404
0.07600000000000004;2925639.0;742024.0;695292.0;372.08057620427985;119.98045862765656;128.3854762459228;41358.04033267512;416.6666666666667;40941.37366600845
0.08000000000000004;5323615.0;1735487.0;1190152.0;599.4941943309802;248.36593487357936;195.12376133070046;56853.4045316751;1083.3333333333333;55770.071198341764
0.08400000000000005;8883027.0;3509445.0;1814170.0;889.852835720823;443.4896962042798;264.8546981267004;72589.6603474607;2083.3333333333335;70506.32701412735
0.08800000000000005;13856066.0;6342822.0;2540205.0;1243.2597312427026;708.3443943309802;333.9207413898429;88351.7238804699;3666.6666666666665;84685.05721380324
0.09200000000000005;20486796.0;10511882.0;3344184.0;1657.6824085901565;1042.265135720823;401.6456355218795;103605.66933686346;5750.0;97855.66933686346
0.09600000000000006;28994109.0;16287525.0;4199271.0;2126.828156261187;1443.9107712427026;465.7278973474538;117286.43691775762;8333.333333333334;108953.10358442427
0.10000000000000006;39556251.0;23926079.0;5068030.0;2640.5352508881792;1909.6386685901564;521.2712876710304;128426.77365674809;11416.666666666666;117010.10699008142
0.10400000000000006;52301997.0;33649718.0;5906533.0;3186.4364288768193;2430.909956261187;564.0172746269923;136475.29449716;15000.0;121475.29449716001
0.10800000000000007;67306273.0;45629426.0;6672571.0;3751.0688415503946;2994.927230888179;591.8634579886402;141158.10316839383;19083.333333333332;122074.7698350605
0.11200000000000007;84592600.0;59976588.0;7329685.0;4321.5814961486585;3586.7906888768193;604.0592526735754;142628.16364956598;23500.0;119128.16364956598
0.11600000000000008;104144921.0;76739987.0;7852613.0;4888.080037142109;4190.849941550395;601.888334598264;141624.63524836267;28083.333333333332;113541.30191502933
0.12000000000000008;125924034.0;95910940.0;8233981.0;5444.7779023889625;4792.738276148659;589.3806209934501;139174.46631171333;32750.0;106424.46631171333
0.12400000000000008;149881868.0;117439415.0;8484619.0;5989.458341229222;5382.118897142109;571.736145246854;136170.10971006495;37416.666666666664;98753.44304339826
0.12800000000000009;175970406.0;141254835.0;8627033.0;6522.134224665049;5953.855042388963;553.2252788402593;133168.97085895675;42000.0;91168.97085895676
0.1320000000000001;204145440.0;167283156.0;8687250.0;7043.758205242656;6507.080321229222;536.2889034358268;130405.99514440169;46416.666666666664;83989.32847773502
0.1360000000000001;234366933.0;195456632.0;8688808.0;7555.372801088597;7043.369224665049;521.7174605776072;127903.64896148526;50833.333333333336;77070.31562815192
0.1400000000000001;266597928.0;225716978.0;8649955.0;8057.748327025164;7565.086685242656;509.2834158459409;125593.88148414178;55000.0;70593.88148414178
0.1440000000000001;300803362.0;258014458.0;8583470.0;8551.358190858762;8074.370101088597;498.3864259365664;123402.4659583995;59083.333333333336;64319.13262506615
0.1480000000000001;336949269.0;292305484.0;8497878.0;9036.476269807747;8572.756527025163;488.47434383359905;121279.51973724613;63000.0;58279.51973724612
0.1520000000000001;375002406.0;328550407.0;8398862.0;9513.283853626004;9061.230870858763;479.17711894898457;119201.8959545644;66916.66666666667;52285.22928789773
0.1560000000000001;414930213.0;366712038.0;8290368.0;9981.951155796667;9540.407989807747;470.2979438182574;117166.82554266573;70750.0;46416.82554266572
0.16000000000000011;456700850.0;406754861.0;8175352.0;10442.658800111292;10010.705933626004;461.766342170662;115176.9110786563;74500.0;40676.9110786563
0.16400000000000012;500283148.0;448644750.0;8056100.0;10895.573919217297;10472.472275796667;453.55252431462577;113228.77977650115;78250.0;34978.77977650114
0.16800000000000012;545646462.0;492348849.0;7934299.0;11340.828161513908;10926.024800111292;445.6070591060052;111313.56057415268;81833.33333333333;29480.22724081936
0.17200000000000013;592760511.0;537835376.0;7811086.0;11778.51149508515;11371.631859217297;437.8614622966106;109420.83339281044;85333.33333333333;24087.500059477108
0.17600000000000013;641595221.0;585073349.0;7687162.0;12208.677072322012;11809.493321513908;430.24789357124064;107541.39430921577;88750.0;18791.394309215775
0.18000000000000013;692120637.0;634032313.0;7562908.0;12631.353213475175;12239.741215085149;422.7103372368638;105669.03528829062;92250.0;13419.035288290615
0.18400000000000014;744306884.0;684682119.0;7438518.0;13046.561201658626;12662.451552322013;415.2127411531619;103801.99704586266;95666.66666666667;8135.330379195992
0.18800000000000014;798124263.0;736992776.0;7314108.0;13454.34423442818;13077.664293475174;407.7433881834513;101945.75819238844;98916.66666666667;3029.0915257217675
0.19200000000000014;853543432.0;790934406.0;7189857.0;13854.791594087534;13485.407681658626;400.3279727695535;100111.83991483858;102166.66666666667;-2054.826751828088
0.19600000000000015;910535578.0;846477348.0;7066084.0;14248.035737235237;13885.73565442818;393.02097965935354;98311.03578692592;105250.0;-6938.964213074087
0.20000000000000015;969072557.0;903592374.0;6943204.0;14634.244082359715;14278.756634087533;385.87134314770447;96552.0862811195;108333.33333333333;-11781.247052213828
0.20400000000000015;1029127032.0;962250885.0;6821672.0;15013.618030582102;14664.627977235237;378.91642512447834;94843.4870555966;111000.0;-16156.512944403403
0.20800000000000016;1090672541.0;1022425062.0;6701970.0;15386.376401350524;15043.544402359716;372.1918282223869;93189.59269210564;113500.0;-20310.407307894366
0.21200000000000016;1153683496.0;1084088006.0;6584535.0;15752.738009514022;15415.736230582103;365.71227076842115;91590.40204087432;115416.66666666667;-23826.264625792348
0.21600000000000016;1218135180.0;1147213800.0;6469696.0;16112.920342932874;15781.448501350524;359.47126816349737;90045.58335471302;116833.33333333333;-26787.74997862031
0.22000000000000017;1284003695.0;1211777479.0;6357701.0;16467.127944462583;16140.919769514021;353.46263341885424;88551.90038242744;117500.0;-28948.099617572552
0.22400000000000017;1351265818.0;1277755008.0;6248687.0;16815.53005869315;16494.382402932875;347.6667615297083;87100.52855764207;117750.0;-30649.471442357935
0.22800000000000017;1419898830.0;1345123204.0;6142614.0;17158.251980778474;16842.049164462584;342.0377342305692;85680.48052133054;117333.33333333333;-31652.85281200279
0.23200000000000018;1489880344.0;1413859551.0;6039279.0;17495.377792113966;17184.086898693153;336.5218220853203;84281.45283387312;116500.0;-32218.547166126882
0.23600000000000018;1561188168.0;1483941985.0;5938359.0;17826.95517454118;17520.608720778473;331.0706113354936;82894.34560680366;115083.33333333333;-32188.987726529675
0.24000000000000019;1633800186.0;1555348702.0;5839466.0;18153.003648623024;17851.679332113967;325.6438024272138;81512.11852046072;113416.66666666667;-31904.548146205954
0.2440000000000002;1707694292.0;1628057994.0;5742192.0;18473.525543256696;18177.32313454118;320.21203408184374;80130.47365841793;111416.66666666667;-31286.19300824873
0.2480000000000002;1782848359.0;1702048134.0;5646158.0;18788.51579949706;18497.535168623024;314.75985463367033;78747.56406009146;109250.0;-30502.435939908537
0.25200000000000017;1859240236.0;1777297314.0;5551045.0;19097.968342776312;18812.295023256695;309.2834762403654;77363.13581981267;107083.33333333333;-29720.19751352066
0.25600000000000017;1936847762.0;1853783627.0;5456609.0;19401.88073115437;19121.57849949706;303.78638327925364;75978.09709451484;105000.0;-29021.90290548515
0.2600000000000002;2015648809.0;1931485086.0;5362676.0;19700.260830102383;19425.364882776314;298.27640837805666;74595.02473700285;102916.66666666667;-28321.641929663812
0.2640000000000002;2095621341.0;2010379651.0;5269158.0;19993.131910270284;19723.64129115437;292.7690189480127;73217.7700419752;101000.0;-27782.2299580248
0.2680000000000002;2176743486.0;2090445292.0;5176049.0;20280.53545814001;20016.410310102383;287.28454016790056;71850.8869674315;99083.33333333333;-27232.446365901822
0.2720000000000002;2258993672.0;2171660071.0;5083415.0;20562.54531759091;20303.694850270283;281.84550786972613;70502.464862725;97333.33333333333;-26830.868470608337
0.2760000000000002;2342350808.0;2254002232.0;4991440.0;20839.282986311315;20585.54035814001;276.49135945090165;69184.41718010127;95500.0;-26315.582819898736
0.2800000000000002;2426794446.0;2337450358.0;4900450.0;21110.90857903784;20862.03171759091;271.2782687204017;67906.39818163164;93833.33333333333;-25926.9351517017
0.2840000000000002;2512304877.0;2421983597.0;4810849.0;21377.60666670341;21133.309986311313;266.24953272652783;66674.52191639223;92166.66666666667;-25492.14475027445
0.2880000000000002;2598863211.0;2507581835.0;4723042.0;21639.582654911068;21399.55951903784;261.42966766556856;65493.99705191445;90583.33333333333;-25089.33628141888
0.2920000000000002;2686451407.0;2594225791.0;4637420.0;21897.04785413773;21660.98918670341;256.8386682076598;64366.299806665666;89000.0;-24633.700193334334
0.2960000000000002;2775052224.0;2681897102.0;4554305.0;22150.20312390237;21917.82785491107;252.47829922666278;63288.81744116006;87416.66666666667;-24127.84922550661
0.3000000000000002;2864649179.0;2770578326.0;4473898.0;22399.237723358536;22170.306154137732;248.33084976463942;62258.64986404122;85916.66666666667;-23658.016802625454
0.3040000000000002;2955226469.0;2860252874.0;4396305.0;22644.32148631092;22418.63700390237;244.37901945616613;61270.940738096215;84333.33333333333;-23062.392595237114
0.3080000000000002;3046768820.0;2950904938.0;4321531.0;22885.586715741993;22663.016023358537;240.59732295238427;60316.30735776798;82916.66666666667;-22600.35930889869
0.3120000000000002;3139261308.0;3042519391.0;4249429.0;23123.120878157784;22903.61334631092;236.9391094310704;59383.54060394795;81416.66666666667;-22033.126062718722
0.3160000000000002;3232689203.0;3135081600.0;4179708.0;23356.97257026518;23140.552455741992;233.35090241579383;58462.92302684924;80083.33333333333;-21620.41030648409
0.32000000000000023;3327037856.0;3228577213.0;4111990.0;23587.162113858216;23373.903358157786;229.78861210739706;57547.38589825865;78666.66666666667;-21119.280768408018
0.32400000000000023;3422292632.0;3322991980.0;4045876.0;23813.692806999665;23603.691970265183;226.22270359303366;56632.673285362216;77250.0;-20617.326714637784
0.32800000000000024;3518438878.0;3418311638.0;3980994.0;24036.56046398499;23829.914673858217;222.63777314144681;55716.914246331726;75916.66666666667;-20199.752420334946
0.33200000000000024;3615461921.0;3514521847.0;3917031.0;24255.759586471264;24052.552446999664;219.02987698532888;54799.78062156806;74583.33333333333;-19783.552711765267
0.33600000000000024;3713347070.0;3611608176.0;3853745.0;24471.286190943058;24271.582323984992;215.40196248627035;53881.65111794842;73333.33333333333;-19451.682215384906
0.34000000000000025;3812079628.0;3709556113.0;3790957.0;24683.138339710633;24486.984286471263;211.75932447179366;52963.03719189382;72083.33333333333;-19120.29614143951
0.34400000000000025;3911644895.0;3808351087.0;3728541.0;24891.315584682965;24698.743610943056;208.10718876757528;52044.31124308303;70916.66666666667;-18872.355423583642
0.34800000000000025;4012028173.0;3907978490.0;3666405.0;25095.81819491461;24906.85079971063;204.44908497233337;51125.65255791105;69750.0;-18624.347442088947
0.35200000000000026;4113214764.0;4008423689.0;3604484.0;25296.646590865963;25111.299884682965;200.78735023164336;50207.098987838435;68500.0;-18292.901012161565
0.35600000000000026;4215189973.0;4109672037.0;3542727.0;25493.801073561506;25312.08723491461;197.12297595135533;49288.620673885816;67333.33333333333;-18044.712659447512
0.36000000000000026;4317939105.0;4211708877.0;3481096.0;25687.281771082555;25509.210210865964;193.45662269554305;48370.17438026214;66166.66666666667;-17796.49228640453
0.36400000000000027;4421447468.0;4314519544.0;3419561.0;25877.08940956942;25702.666833561507;189.78859752104836;47451.90962171637;65000.0;-17548.090378283632
0.36800000000000027;4525700384.0;4418089365.0;3358103.0;26063.227880824965;25892.455431082555;186.12015848686497;46534.61781388614;63916.666666666664;-17382.04885278052
0.3720000000000003;4630683216.0;4522403667.0;3296717.0;26245.706602498376;26078.57558956942;182.45531125554407;45619.6804183528;62833.333333333336;-17213.652914980536
0.3760000000000003;4736381396.0;4627447790.0;3235426.0;26424.543884868937;26261.030900824964;178.80126167341223;44709.320592640324;61750.0;-17040.679407359676
0.3800000000000003;4842780519.0;4733207118.0;3174278.0;26599.779339837158;26439.832162498376;175.16840237056022;43808.86374205511;60666.666666666664;-16857.802924611555
0.3840000000000003;4949866468.0;4839667120.0;3113399.0;26771.486125552467;26615.000564868937;171.58271496822272;42926.6964288272;59583.333333333336;-16656.636904506136
0.3880000000000003;5057625538.0;4946813453.0;3053015.0;26939.766244887378;26786.58327983716;168.08374571530658;42070.02983372786;58583.333333333336;-16513.303499605478
0.3920000000000003;5166044516.0;5054632121.0;2993417.0;27104.743172317692;26954.667025552466;164.7042393349111;41244.2318575786;57500.0;-16255.768142421402
0.3960000000000003;5275110765.0;5163109606.0;2934910.0;27266.560832647203;27119.371264887377;161.4665074303157;40454.415082377636;56500.0;-16045.584917622364
0.4000000000000003;5384812260.0;5272232957.0;2877808.0;27425.372645741296;27280.837772317693;158.39154032951046;39702.953273523235;55500.0;-15797.046726476765
0.4040000000000003;5495137585.0;5381989874.0;2822386.0;27581.32989750639;27439.229312647203;155.48649309409302;38989.312941273965;54500.0;-15510.687058726035
0.4080000000000003;5606075915.0;5492368737.0;2768848.0;27734.581173939285;27594.715805741296;152.74497176509612;38312.819108223266;53500.0;-15187.180891776734
0.4120000000000003;5717616980.0;5603358580.0;2717335.0;27885.264853516182;27747.460777506392;150.1604964328908;37670.919894224426;52583.333333333336;-14912.41343910891
0.4160000000000003;5829750960.0;5714949065.0;2667915.0;28033.493751773665;27897.621273939283;147.71847957689897;37057.2245643707;51666.666666666664;-14609.442102295965
0.4200000000000003;5942468361.0;5827130424.0;2620536.0;28179.348922396963;28045.339753516182;145.38615825748275;36463.79265582436;50833.333333333336;-14369.540677508972
0.4240000000000003;6055759896.0;5939893327.0;2575034.0;28322.882259263148;28190.725911773665;143.12505062329728;35883.334216546245;49916.666666666664;-14033.332450120419
0.4280000000000003;6169616387.0;6053228730.0;2531166.0;28464.121350262798;28333.850962396962;140.90125686618558;35309.772749912554;49000.0;-13690.227250087446
0.43200000000000033;6284028697.0;6167127738.0;2488649.0;28603.076175715472;28474.752219263148;138.68807099965125;34738.7063631686;48083.333333333336;-13344.626970164732
0.43600000000000033;6398987689.0;6281581499.0;2447198.0;28739.74670006995;28613.4402902628;136.46776545267494;34167.6310886196;47250.0;-13082.3689113804
0.44000000000000034;6514484211.0;6396581131.0;2406558.0;28874.129077996873;28749.908055715474;134.23212435447567;33595.594481730586;46500.0;-12904.405518269414
0.44400000000000034;6630509094.0;6512117691.0;2366520.0;29006.219389456175;28884.14018006995;131.98009792692392;33022.57786482551;45750.0;-12727.422135174493
0.44800000000000034;6747053160.0;6628182172.0;2326922.0;29136.015118884166;29016.120277996873;129.71443145930243;32448.93235699783;44916.666666666664;-12467.734309668835
0.45200000000000035;6864107226.0;6744765510.0;2287650.0;29263.51521429717;29145.834709456176;127.43940942798872;31875.02385325115;44083.333333333336;-12208.309480082185
0.45600000000000035;6981662110.0;6861858606.0;2248620.0;29388.719566063515;29273.274118884165;125.15829541300627;31301.087941586047;43250.0;-11948.912058413953
0.46000000000000035;7099708631.0;6979452335.0;2209775.0;29511.628907247832;29398.43241429717;122.87365176634557;30727.335296079218;42500.0;-11772.664703920782
0.46400000000000036;7218237621.0;7097537559.0;2171072.0;29632.246031312086;29521.306066063516;120.58716118431403;30154.281016063578;41750.0;-11595.718983936422
0.46800000000000036;7337239935.0;7216105131.0;2132490.0;29750.57710429786;29641.89322724783;118.30220406425724;29582.768246443266;41000.0;-11417.231753556734
0.47200000000000036;7456706472.0;7335145912.0;2094023.0;29866.632723885614;29760.195431312088;116.02305298577267;29013.904896938584;40333.333333333336;-11319.428436394752
0.47600000000000037;7576628206.0;7454650785.0;2055687.0;29980.43217913836;29876.21848429786;113.75545958775183;28449.86381318631;39583.333333333336;-11133.469520147024
0.48000000000000037;7696996243.0;7574610680.0;2017526.0;30092.007885133044;29989.973943885612;111.5097952527467;27893.926498671135;38833.333333333336;-10939.4068346622
0.4840000000000004;7817801861.0;7695016614.0;1979629.0;30201.40304164141;30101.48373913836;109.30188599468602;27348.78912709155;38083.333333333336;-10734.544206241786
0.4880000000000004;7939036539.0;7815859756.0;1942105.0;30308.66786033913;30210.785625133045;107.1437165083662;26816.204674430082;37416.666666666664;-10600.461992236582
0.4920000000000004;8060691979.0;7937131473.0;1905066.0;30413.858602601602;30317.92934164141;105.04247869772007;26297.68556561794;36750.0;-10452.31443438206
0.4960000000000004;8182760118.0;8058823360.0;1868619.0;30517.033439080642;30422.97182033913;103.00392226246913;25793.709119760024;36083.333333333336;-10289.624213573312
0.5000000000000003;8305233116.0;8180927262.0;1832856.0;30618.24797967942;30525.9757426016;101.02905647904117;25303.635149694855;35416.666666666664;-10113.031516971809
0.5040000000000003;8428103342.0;8303435281.0;1797835.0;30717.55499996519;30627.00479908064;99.11328059877997;24826.755071441767;34750.0;-9923.244928558233
0.5080000000000003;8551363356.0;8426339753.0;1763589.0;30815.002176472743;30726.11807967942;97.25226028576799;24361.794126888526;34083.333333333336;-9721.53920644481
0.5120000000000003;8675005870.0;8549633234.0;1730122.0;30910.62693141739;30823.37033996519;95.43915650755298;23906.18873616222;33500.0;-9593.811263837779
0.5160000000000003;8799023693.0;8673308471.0;1697399.0;31004.45432979878;30918.809496472742;93.66137494464783;23456.849595347194;32916.666666666664;-9459.81707131947
