Zeit[sec];Sollposition[°];Istposition[°];Positionsschleppfehler[°];Sollgeschwindigkeit[°/s];Istgeschwindigkeit[°/s];Geschwindigkeitsdifferenz[°/s];Sollbeschleunigung[°/s*s];Istbeschleunigung[°/s*s];Beschleunigungsdifferenz[°/s*s]
0.0;0.0;0.0;0.0;-1.996035449277412e-31;0.3370931511612078;-0.3370931511612078;-4.9969189697226995e-28;0.0;-4.9969189697226995e-28
0.004;0.0;0.0;0.0;-9.461560856168358e-31;-0.24393043014365362;0.24393043014365362;-1.8663813517227365e-28;0.0;-1.8663813517227365e-28
0.008;0.0;0.0;0.0;-8.896561501962861e-31;0.02207065405283561;-0.02207065405283561;1.4124983855137417e-29;0.0;1.4124983855137417e-29
0.012;0.0;0.0;0.0;-5.278371379952875e-31;0.07268430679963503;-0.07268430679963503;9.045475305024967e-29;0.0;9.045475305024967e-29
0.016;0.0;0.0;0.0;-1.8159450078825568e-31;0.15825044721894316;-0.15825044721894316;8.656065930175794e-29;0.0;8.656065930175794e-29
0.02;0.0;-5493.0;5493.0;2.534870129134694e-32;-1.6199111264820163;2.1472391264820163;5.173580051990066e-29;0.0;5.173580051990066e-29
0.024;0.0;0.0;0.0;9.703436259836214e-32;0.436681545210363;-0.436681545210363;1.79214153267538e-29;0.0;1.79214153267538e-29
0.028;0.0;5493.0;-5493.0;8.734168773370355e-32;3.2442077456560257;-3.771535745656026;-2.4231687161646488e-30;0.0;-2.4231687161646488e-30
0.032;0.0;0.0;0.0;4.9240865109664776e-32;0.40814509256469017;-0.40814509256469017;-9.525205656009693e-30;0.0;-9.525205656009693e-30
0.036000000000000004;0.0;-5493.0;5493.0;1.4796775259263e-32;-1.231590697638534;1.758918697638534;-8.611022462600444e-30;0.0;-8.611022462600444e-30
0.04000000000000001;0.0;-5493.0;5493.0;-4.704748901469413e-33;-1.2368875534645947;1.7642155534645947;-4.8753810401831034e-30;0.0;-4.8753810401831034e-30
0.04400000000000001;0.0;10986.0;-10986.0;-1.0628589374156015e-32;7.12753652480787;-8.18219252480787;-1.4809601181716504e-30;0.0;-1.4809601181716504e-30
0.048000000000000015;-439.0;0.0;0.0;-0.10979642159523807;0.6475713313977614;-0.6475713313977614;-27.449105398809518;0.0;-27.449105398809518
0.05200000000000002;-4815.0;0.0;-174.0;-1.0941952205394574;-0.2381300071026679;0.17789344150924344;-246.09969973605482;0.0;-246.09969973605482
0.05600000000000002;-111860.0;-5493.0;3322.0;-26.76103743685521;-1.5750197943762103;1.3944799686386073;-6416.710554078939;0.0;-6416.710554078939
0.060000000000000026;-341742.0;-16479.0;-30752.0;-57.470641100569004;-7.409901851638178;-6.807219301548281;-7677.400915928448;0.0;-7677.400915928448
0.06400000000000003;-806322.0;-32959.0;-169418.0;-116.145017576492;-7.1364596136624785;-47.91419218468678;-14668.594118980747;-333.3333333333333;-14335.260785647415
0.06800000000000003;-1533608.0;-126343.0;-398251.0;-181.82149094663424;-25.796698737923204;-92.98957276424976;-16419.118342535563;-1083.3333333333333;-15335.785009202229
0.07200000000000004;-2531408.0;-362549.0;-729408.0;-249.44986885339665;-66.97282305989543;-144.89126283829793;-16907.094476690603;-3166.6666666666665;-13740.427810023935
0.07600000000000004;-3899070.0;-1142578.0;-782381.0;-341.9154149462828;-211.66736422880183;-71.69147477830575;-23116.386523221536;-9416.666666666666;-13699.71985655487
0.08000000000000004;-5785678.0;-2329102.0;-738716.0;-471.6521055406032;-295.2223973713317;-61.40909170693919;-32434.1726485801;-20583.333333333332;-11850.839315246769
0.08400000000000005;-8330416.0;-3685913.0;-953154.0;-636.1845519521434;-347.3920977288089;-136.92288159319344;-41133.11160288504;-23083.333333333332;-18049.778269551705
0.08800000000000005;-11646396.0;-5784302.0;-999271.0;-828.9949572018613;-537.9037125248411;-94.15277727701164;-48202.60131242949;-25500.0;-22702.601312429495
0.09200000000000005;-15829074.0;-8591309.0;-1038931.0;-1045.6693753368825;-709.1924592929907;-102.21172437489122;-54168.604533755286;-30083.333333333332;-24085.271200421954
0.09600000000000006;-20961773.0;-12052002.0;-1233331.0;-1283.174750127713;-883.2136103507976;-148.95939563555567;-59376.34369770763;-38750.0;-20626.343697707627
0.10000000000000006;-27110372.0;-16512451.0;-1327150.0;-1537.1494813472161;-1125.9350680592702;-140.03830069193532;-63493.68280487579;-47416.666666666664;-16077.016138209125
0.10400000000000006;-34321205.0;-21873779.0;-1495743.0;-1802.7081978007388;-1347.8652474730059;-178.20621017264943;-66389.67911338068;-51083.333333333336;-15306.345780047344
0.10800000000000007;-42626597.0;-28405151.0;-1528177.0;-2076.347923263397;-1654.988611296146;-132.66761057920803;-68409.9313656646;-58250.0;-10159.93136566459
0.11200000000000007;-52048551.0;-36150513.0;-1421399.0;-2355.4884012905873;-1939.3598819454025;-106.74048727635022;-69785.11950679752;-67250.0;-2535.119506797514
0.11600000000000008;-62599844.0;-44983521.0;-1330069.0;-2637.8232388048955;-2233.3517384504303;-79.75428901439545;-70583.70937857706;-69250.0;-1333.7093785770548
0.12000000000000008;-74285722.0;-54964600.0;-1212167.0;-2921.4693807425815;-2486.6696587203323;-95.49253742440123;-70911.5354844215;-74500.0;3588.464515578494
0.12400000000000008;-87106453.0;-65895996.0;-1275292.0;-3205.182476408939;-2743.979483440475;-127.07874498318506;-70928.27391658931;-67416.66666666667;-3511.6072499226475
0.12800000000000009;-101059882.0;-77920532.0;-1379938.0;-3488.357172806295;-3017.626716433737;-147.14253261052;-70793.674099339;-67416.66666666667;-3377.007432672329
0.1320000000000001;-116143079.0;-91060181.0;-1503467.0;-3770.799069498683;-3287.491432415064;-172.6358370908747;-70610.47417309703;-65083.333333333336;-5527.140839763696
0.1360000000000001;-132352875.0;-105512695.0;-1445681.0;-4052.4486696386693;-3619.6928293542205;-117.77429159926533;-70412.40003499661;-70000.0;-412.40003499660816
0.1400000000000001;-149686046.0;-121096802.0;-1384830.0;-4333.292616455452;-3907.469013332209;-106.28846885854455;-70210.98670419565;-73583.33333333333;3372.346629137681
0.1440000000000001;-168139177.0;-137960815.0;-1169412.0;-4613.28253847305;-4209.02349119749;-65.38867654154365;-69997.48050439962;-76083.33333333333;6085.85282893371
0.1480000000000001;-187708002.0;-155505981.0;-1394882.0;-4892.206066833022;-4374.538034426182;-202.02931326583348;-69730.88208999297;-72333.33333333333;2602.4512433403543
0.1520000000000001;-208387142.0;-174287109.0;-1502678.0;-5169.784629246368;-4704.134145948665;-162.3537353896636;-69394.64060333648;-64000.0;-5394.640603336484
0.1560000000000001;-230170144.0;-194018555.0;-1773742.0;-5445.7502927886035;-4939.351693972017;-231.55485014387523;-68991.4158855588;-63416.666666666664;-5574.749218892144
0.16000000000000011;-253049177.0;-214980469.0;-1922126.0;-5719.757923737287;-5260.8870527711015;-201.2113092171303;-68501.90773717077;-63333.333333333336;-5168.574403837432
0.16400000000000012;-277015019.0;-237041016.0;-2072672.0;-5991.460225271397;-5535.0108771245705;-216.73868565613338;-67925.57538352752;-71500.0;3574.42461647247
0.16800000000000012;-302057437.0;-260216675.0;-2200527.0;-6260.604200520511;-5800.7336970336855;-236.39502245082258;-67285.99381227855;-70166.66666666667;2880.6728543881236
0.17200000000000013;-328165322.0;-284842529.0;-1960993.0;-6526.970967193004;-6162.149894100412;-122.68503430959208;-66591.6916681233;-74750.0;8158.308331876697
0.17600000000000013;-355326771.0;-310578003.0;-1684070.0;-6790.361959503081;-6440.529864132656;-85.77830191279736;-65847.74807751933;-76666.66666666667;10818.918589147344
0.18000000000000013;-383529315.0;-336840820.0;-1940616.0;-7050.635713529949;-6579.967747534427;-236.17202585179075;-65068.438506716804;-69666.66666666667;4598.228159949869
0.18400000000000014;-412760112.0;-364246216.0;-2103274.0;-7307.698875203483;-6859.371254256186;-234.55617934557358;-64265.79041838363;-61416.666666666664;-2849.1237517169666
0.18800000000000014;-443006064.0;-392684326.0;-2269294.0;-7561.48760908685;-7127.292188067867;-241.59223492623278;-63447.18347084177;-56416.666666666664;-7030.5168041751
0.19200000000000014;-474253907.0;-422374878.0;-2206007.0;-7811.960435784872;-7433.655912714204;-184.9366725621312;-62618.206674505476;-63666.666666666664;1048.4599921611916
0.19600000000000015;-506490279.0;-453103638.0;-2114485.0;-8059.092648074993;-7682.597967688264;-179.7017201838271;-61783.05307253027;-71333.33333333333;9550.280260803063
0.20000000000000015;-539701773.0;-484925537.0;-1926495.0;-8302.872984773456;-7962.958471583815;-130.4619307143421;-60945.08417461566;-69583.33333333333;8638.24915871767
0.20400000000000015;-573874963.0;-517868042.0;-1601190.0;-8543.29725796227;-8196.947793086993;-111.06614911478937;-60106.06829720337;-71166.66666666667;11060.598369463307
0.20800000000000016;-608996405.0;-551046753.0;-2009557.0;-8780.359923348697;-8296.553225602167;-293.1332984510391;-59265.66634660685;-57666.666666666664;-1598.9996799401852
0.21200000000000016;-645052625.0;-585631714.0;-1968118.0;-9014.054530044494;-8676.849253334649;-147.9702393734824;-58423.65167394928;-52333.333333333336;-6090.318340615944
0.21600000000000016;-682030124.0;-621260376.0;-1825967.0;-9244.374484280888;-8897.892398533151;-149.02757783719971;-57579.98855909864;-57333.333333333336;-246.65522576530202
0.22000000000000017;-719915362.0;-657526245.0;-1976114.0;-9471.309084444161;-9109.534094632922;-184.17633818091235;-56733.65004081825;-58666.666666666664;1933.0166258484169
0.22400000000000017;-758694750.0;-695104980.0;-1729384.0;-9694.84649180196;-9378.751445481492;-120.27039492915173;-55884.351839449664;-67916.66666666667;12032.314827217007
0.22800000000000017;-798354662.0;-733062744.0;-2006056.0;-9914.977452468356;-9491.564466081565;-259.6253886851355;-55032.74016659907;-53083.333333333336;-1949.4068332657334
0.23200000000000018;-838881436.0;-772234497.0;-1957565.0;-10131.6930439192;-9838.137927067866;-130.6035015958114;-54178.89786271098;-53750.0;-428.89786271098274
0.23600000000000018;-880261377.0;-812614746.0;-1575766.0;-10344.984790628438;-10074.54966874711;-76.3358357027355;-53322.93667730937;-60500.0;7177.063322690628
0.24000000000000019;-922480765.0;-853500366.0;-1550108.0;-10554.84657090937;-10238.167285019836;-125.63315386738941;-52465.44507023327;-58500.0;6034.554929766728
0.2440000000000002;-965525864.0;-895182495.0;-1575749.0;-10761.274038230353;-10406.467557138443;-171.7462979526972;-51606.866830245504;-60833.333333333336;9226.466503087828
0.2480000000000002;-1009382920.0;-937397461.0;-1902634.0;-10964.263692078017;-10578.726233637328;-239.3888077667998;-50747.41346191604;-40416.666666666664;-10330.746795249375
0.25200000000000017;-1054038174.0;-980947266.0;-1715018.0;-11163.812755815925;-10887.587866271304;-117.60059005498442;-49887.265934477;-48166.666666666664;-1720.5992678103357
0.25600000000000017;-1099477852.0;-1025029907.0;-1801148.0;-11359.91914949817;-11036.355280210477;-178.74731318248087;-49026.59842056119;-51750.0;2723.401579438814
0.2600000000000002;-1145688180.0;-1069931030.0;-1861614.0;-11552.581296201912;-11222.612494766194;-196.49909318698883;-48165.536675935524;-55166.666666666664;7001.129990731137
0.2640000000000002;-1192655380.0;-1115474854.0;-2058423.0;-11741.79943562086;-11411.67725613449;-221.08897128518765;-47304.53485473708;-47166.666666666664;-137.86818807042073
0.2680000000000002;-1240365689.0;-1162408447.0;-1630730.0;-11927.576813172962;-11738.63159304782;-44.39293913444635;-46444.344388025456;-50500.0;4055.6556119745437
0.2720000000000002;-1288805358.0;-1209902344.0;-1394230.0;-12109.916636472453;-11884.589716261667;-63.60492675142268;-45584.95582487285;-57083.333333333336;11498.377508460486
0.2760000000000002;-1337960655.0;-1257896118.0;-1395590.0;-12288.82357947554;-12006.913500120037;-125.84630460981862;-44726.735750771695;-53916.666666666664;9189.930915894969
0.2800000000000002;-1387817893.0;-1306620483.0;-1390356.0;-12464.308907859511;-12224.463672068061;-88.79255048198684;-43871.33209599278;-41833.333333333336;-2037.9987626594484
0.2840000000000002;-1438363432.0;-1356190796.0;-1249455.0;-12636.384150103362;-12375.088588933668;-102.2115784186899;-43018.810560962724;-42250.0;-768.81056096272
0.2880000000000002;-1489580280.0;-1405865479.0;-1700798.0;-12804.2115273233;-12433.892099865438;-260.89032652213245;-41956.84430498432;-37666.666666666664;-4290.177638317651
0.2920000000000002;-1541441820.0;-1456539917.0;-1834029.0;-12965.384396896512;-12690.421453355366;-187.56216014039455;-40293.217393303166;-39250.0;-1043.2173933031663
0.2960000000000002;-1593912028.0;-1508175659.0;-1666813.0;-13117.551331274297;-12918.670085703528;-108.47465054103122;-38041.73359444621;-39083.333333333336;1041.599738887122
0.3000000000000002;-1646944386.0;-1560245361.0;-1696200.0;-13258.088896253139;-13007.349617256124;-180.25741923016722;-35134.39124471051;-49083.333333333336;13948.942088622822
0.3040000000000002;-1700471381.0;-1613402710.0;-1228377.0;-13381.74812678645;-13276.458030878044;-13.84683787978065;-30914.807633327655;-51083.333333333336;20168.52570000568
0.3080000000000002;-1754403962.0;-1666856689.0;-999578.0;-13483.144553156724;-13372.64078517118;-29.61308951812498;-25349.10659256866;-44833.333333333336;19484.226740764676
0.3120000000000002;-1808643271.0;-1720316162.0;-1225010.0;-13559.826463061774;-13365.978449310434;-172.84817040876987;-19170.477476262477;-32416.666666666668;13246.189190404191
0.3160000000000002;-1863086440.0;-1774209595.0;-1383394.0;-13610.791830065935;-13499.752241334932;-146.00719525850218;-12741.341751040181;-20583.333333333332;7841.991582293151
0.32000000000000023;-1917624796.0;-1828883057.0;-1028271.0;-13634.588348685396;-13643.463541059067;-34.834601620124886;-5949.129654865374;-22500.0;16550.870345134626
0.32400000000000023;-1972146166.0;-1883193970.0;-1197073.0;-13630.341865616132;-13555.524914178046;-179.32224650261924;1061.6207673160716;-21916.666666666668;22978.28743398274
0.32800000000000024;-2026543421.0;-1937669678.0;-1252429.0;-13599.312999214248;-13662.443819623075;-90.55461615035347;7757.216600471111;-13083.333333333334;20840.549933804446
0.33200000000000024;-2080716214.0;-1993073730.0;-320637.0;-13543.197511999098;-13816.125548492868;167.2801098423297;14028.871803787297;-14333.333333333334;28362.205137120633
0.33600000000000024;-2134573850.0;-2047236328.0;-467025.0;-13464.408458580225;-13513.765308137581;-108.31498696438211;19697.263354718416;-6666.666666666667;26363.930021385084
0.34000000000000025;-2188048917.0;-2100811157.0;-941349.0;-13368.766026570836;-13450.216374607393;-152.4408144729714;23910.60800234709;11833.333333333334;12077.274669013756
0.34400000000000025;-2241097971.0;-2155166016.0;-294290.0;-13262.26286284493;-13559.393001463095;104.19177815174226;26625.790931476786;21250.0;5375.790931476786
0.34800000000000025;-2293687508.0;-2208048706.0;-720002.0;-13147.383696786226;-13190.83458147293;-205.38520166756825;28719.791514675762;23500.0;5219.791514675762
0.35200000000000026;-2345788084.0;-2260634766.0;-1003300.0;-13025.143324032178;-13193.333509110787;-120.32240135379834;30560.093188511928;23916.666666666668;6643.42652184526
0.35600000000000026;-2397377121.0;-2314022827.0;-13603.0;-12897.258649212383;-13327.246248360343;226.34994125167213;31971.168704948923;21000.0;10971.168704948923
0.36000000000000026;-2448441086.0;-2366202393.0;265339.0;-12765.990638476314;-12979.24154102435;29.558784176042536;32817.0026840171;15416.666666666666;17400.336017350433
0.36400000000000027;-2498974792.0;-2416959229.0;-361677.0;-12633.426043264955;-12694.80031539039;-185.8829348942927;33141.14880283978;25083.333333333332;8057.815469506448
0.36800000000000027;-2548978883.0;-2468204956.0;27248.0;-12501.022106062392;-12825.67349446782;114.08930617057922;33100.98430064091;45333.333333333336;-12232.349032692433
0.3720000000000003;-2598456849.0;-2518884888.0;380351.0;-12369.490919094756;-12614.107688524107;68.91468787343365;32882.79674190881;38166.666666666664;-5283.869924757859
0.3760000000000003;-2647412623.0;-2567927856.0;-375275.0;-12238.942892228491;-12263.08926238235;-222.58498754167704;32637.006716566248;31750.0;887.0067165662476
0.3800000000000003;-2695849440.0;-2617201538.0;-375600.0;-12109.203641825572;-12342.115114931608;-12.443841872231133;32434.812600729856;39083.333333333336;-6648.52073260348
0.3840000000000003;-2743769584.0;-2666848755.0;518541.0;-11980.035470948556;-12381.716159122905;243.22785865849073;32292.042719253914;33083.333333333336;-791.2906140794221
0.3880000000000003;-2791174324.0;-2714897461.0;332242.0;-11851.184469971087;-11979.451721134243;-47.40371811159821;32212.75024436727;17416.666666666668;14796.083577700603
0.3920000000000003;-2838064188.0;-2762237549.0;-46492.0;-11722.465294320657;-11861.261868085432;-72.90627102366489;32179.793912607693;31333.333333333332;846.4605792743605
0.3960000000000003;-2884439321.0;-2809692993.0;205333.0;-11593.782679321163;-11855.245887941868;74.05354154525412;32170.65374987351;44750.0;-12579.346250126491
0.4000000000000003;-2930299467.0;-2856599121.0;422663.0;-11465.03601257815;-11693.698501991285;62.075287932226274;32186.666685753153;34750.0;-2563.3333142468473
0.4040000000000003;-2975643999.0;-2902247314.0;-103109.0;-11336.132396197227;-11411.91646032148;-141.4726409999621;32225.904095230817;26750.0;5475.904095230817
0.4080000000000003;-3020472120.0;-2947813110.0;-196044.0;-11207.029740613343;-11411.939701788298;-21.562640014262797;32275.663895970865;40333.333333333336;-8057.6694373624705
0.4120000000000003;-3064782886.0;-2993703003.0;551045.0;-11077.691147565954;-11457.255220914463;224.45503580005243;32334.64826184718;30833.333333333332;1501.314928513846
0.4160000000000003;-3108575153.0;-3038582153.0;804171.0;-10948.066206124295;-11190.905097602408;111.60004334429141;32406.23536041494;15666.666666666666;16739.568693748275
0.4200000000000003;-3151845639.0;-3082230835.0;344633.0;-10817.620940788971;-10905.643874429767;-88.32608456291564;32611.316333830928;26583.333333333332;6027.983000497596
0.4240000000000003;-3194591778.0;-3125813599.0;338970.0;-10686.534122121631;-10896.646577087373;32.08147932004613;32771.70466683492;46916.666666666664;-14144.961999831743
0.4280000000000003;-3236815396.0;-3169072266.0;531989.0;-10555.904089849311;-10809.325490618725;93.98504147323183;32657.508068080006;42583.333333333336;-9925.82526525333
0.43200000000000033;-3278515355.0;-3211748657.0;666340.0;-10424.989359801006;-10643.533217270018;71.992415021954;32728.682512076375;24583.333333333332;8145.349178743043
0.43600000000000033;-3319690017.0;-3253606567.0;505193.0;-10293.664941927673;-10466.854488857261;10.58916158408283;32831.10446833325;27666.666666666668;5164.437801666583
0.44000000000000034;-3360337648.0;-3295063477.0;467348.0;-10161.907151525118;-10360.184350149368;31.361399594736213;32939.44760063868;37583.333333333336;-4643.885732694649
0.44400000000000034;-3400456449.0;-3336437988.0;873078.0;-10029.69993246202;-10318.542375471487;160.16334771196125;33051.80476577471;32750.0;301.8047657747047
0.44800000000000034;-3440044488.0;-3376873169.0;867213.0;-9897.009165621874;-10107.29237096776;80.28374576023816;33172.691710036364;27750.0;5422.691710036361
0.45200000000000035;-3479095938.0;-3416709595.0;792178.0;-9762.862074267483;-9960.59970110348;58.78402072616882;33536.772838597695;31500.0;2036.7728385976989
0.45600000000000035;-3517609695.0;-3455897827.0;602010.0;-9628.438898003644;-9813.640898198704;26.834433288573564;33605.794065959795;41583.333333333336;-7977.539267373537
0.46000000000000035;-3555585747.0;-3494794922.0;657698.0;-9494.012523101024;-9704.095330646544;56.88293529213661;33606.59372565488;37333.333333333336;-3726.7396076784607
0.46400000000000036;-3593022048.0;-3533131714.0;690774.0;-9359.074857304651;-9566.66162577117;57.04735320587679;33734.41644909326;30916.666666666668;2817.749782426592
0.46800000000000036;-3629916133.0;-3570809326.0;603187.0;-9223.520616987058;-9426.770488333872;43.376938779652846;33888.5600793983;31500.0;2388.560079398303
0.47200000000000036;-3666261818.0;-3608063965.0;633342.0;-9086.420799564356;-9314.370248856489;69.05071141721419;34274.95435567562;34000.0;274.954355675618
0.47600000000000037;-3702066643.0;-3644835205.0;724752.0;-8951.20582282935;-9182.101985900075;81.72123320964602;33803.744183751405;33083.333333333336;720.4108504180695
