Zeit[sec];Sollposition[°];Istposition[°];Positionsschleppfehler[°];Sollgeschwindigkeit[°/s];Istgeschwindigkeit[°/s];Geschwindigkeitsdifferenz[°/s];Sollbeschleunigung[°/s*s];Istbeschleunigung[°/s*s];Beschleunigungsdifferenz[°/s*s]
0.0;0.0;-197754.0;197754.0;-0.0;0.7125862411868946;7.790835758813104;0.0;-83.33333333333333;83.33333333333333
0.004;0.0;-192261.0;192261.0;-0.0;2.882989011015211;5.384233988984788;0.0;0.0;0.0
0.008;0.0;-186768.0;186768.0;-0.0;4.616805396311925;3.4142186036880737;0.0;-83.33333333333333;83.33333333333333
0.012;0.0;-186768.0;186768.0;-0.0;2.8722458707104725;5.1587781292895265;0.0;0.0;0.0
0.016;0.0;-192261.0;192261.0;-0.0;-1.0163036846235483;9.283526684623547;0.0;0.0;0.0
0.02;0.0;-192261.0;192261.0;-0.0;-3.944052051801288;12.211275051801287;0.0;83.33333333333333;-83.33333333333333
0.024;0.0;-181274.0;181274.0;-0.0;-0.7152670242823973;8.510049024282397;0.0;0.0;0.0
0.028;0.0;-170288.0;170288.0;-0.0;2.3362304540224126;4.986153545977588;0.0;83.33333333333333;-83.33333333333333
0.032;0.0;-181274.0;181274.0;-0.0;-3.9727112208805617;11.767493220880562;0.0;-83.33333333333333;83.33333333333333
0.036000000000000004;572.0;-164795.0;164795.0;0.1431987983630384;2.7890938724627232;4.297091127537275;35.7996995907596;0.0;35.7996995907596
0.04000000000000001;6281.0;-164795.0;165022.0;1.4270723806779102;1.011835639648964;6.140886446420756;320.96839557871795;0.0;320.96839557871795
0.04400000000000001;34338.0;-164795.0;167627.0;7.0143501308241305;0.14522470539934954;7.714131852367654;1396.8194375365551;0.0;1396.8194375365551
0.048000000000000015;127010.0;-159302.0;176674.0;23.167903645684564;2.835293291071383;8.396506719553283;4038.3883787151085;0.0;4038.3883787151085
0.05200000000000002;361701.0;-153809.0;224725.0;58.67283242379267;4.386908798791202;18.66250994583416;8876.232194527027;-83.33333333333333;8959.565527860359
0.05600000000000002;851348.0;-137329.0;356847.0;122.4118246545216;6.841639720347969;45.653184693718174;15934.74805768223;166.66666666666666;15768.081391015565
0.060000000000000026;1733145.0;-98877.0;653340.0;220.44910763380707;13.823802444978691;98.00612778448516;24509.32074482137;500.0;24009.32074482137
0.06400000000000003;3154187.0;5493.0;1192605.0;355.26065637825167;26.56057503657347;185.63004482908633;33702.88718611115;1583.3333333333333;32119.553852777815
0.06800000000000003;5263992.0;208740.0;2082659.0;527.4511073205027;48.317966183449265;314.5617138921242;43047.61273556277;3083.3333333333335;39964.27940222943
0.07200000000000004;8212469.0;615234.0;3367131.0;737.1192658171698;115.95018330231743;451.5780179803164;52417.03962416676;5000.0;47417.03962416676
0.07600000000000004;12144870.0;2114868.0;4305787.0;983.1001485295977;404.5527588645602;390.16840981140473;61495.22067810699;16833.333333333332;44661.887344773655
0.08000000000000004;17191698.0;5059204.0;4695124.0;1261.7068883444313;753.0661021328756;282.2425478622879;69651.68495370838;43583.333333333336;26068.351620375048
0.08400000000000005;23459538.0;9332886.0;4789931.0;1566.960060525399;1078.0899415264375;219.9991648747889;76313.29304524195;70500.0;5813.293045241949
0.08800000000000005;31025812.0;15007324.0;4639903.0;1891.5682611441744;1434.7522121757013;145.8661569915655;81152.05015469383;85166.66666666667;-4014.6165119728466
0.09200000000000005;39936146.0;22044067.0;4378655.0;2227.583515231913;1771.7959870277562;110.35972523410442;84003.81352193472;86250.0;-2246.186478065283
0.09600000000000006;50205794.0;30333252.0;4181034.0;2567.4117498153805;2078.361298744453;124.3142212316634;84957.05864586683;84250.0;707.0586458668231
0.10000000000000006;61826590.0;39721069.0;4234623.0;2905.1989840395568;2366.9458746675214;175.4941753811513;84446.80855604407;80500.0;3946.8085560440613
0.10400000000000006;74776638.0;50449219.0;4303865.0;3237.511693937809;2698.932458975413;185.48166522230576;83078.17747456307;76750.0;6328.177474563063
0.10800000000000007;89028706.0;62715454.0;4177537.0;3563.0170720390915;3079.549123262104;135.06152679048637;81376.34452532063;79750.0;1626.3445253206328
0.11200000000000007;104555424.0;76382446.0;3969035.0;3881.6791874625014;3442.059125244215;93.23172530466081;79665.52885585248;85916.66666666667;-6251.1378108142
0.11600000000000008;121331362.0;91724854.0;3376445.0;4193.984331491541;3846.9291204195106;-14.287621785403644;78076.2860072598;93166.66666666667;-15090.380659406876
0.12000000000000008;139333137.0;108292236.0;2823608.0;4500.443488466162;4150.170888683398;-25.119608213817628;76614.78924365542;93416.66666666667;-16801.877423011247
0.12400000000000008;158538683.0;125815430.0;2555058.0;4801.386277594899;4380.725747299079;42.80243255527694;75235.69728218422;86083.33333333333;-10847.63605114911
0.12800000000000009;178926475.0;144360352.0;2482005.0;5096.947766527053;4651.697030681538;72.99612732018977;73890.37223303854;72250.0;1640.3722330385335
0.1320000000000001;200475026.0;164267578.0;2242013.0;5387.137422555632;5003.3081367268505;9.906875426330771;72547.41400714466;66750.0;5797.414007144653
0.1360000000000001;223162689.0;185663452.0;1687227.0;5671.915671174996;5345.205059518623;-62.38267318882481;71194.56215484093;75666.66666666667;-4472.104511825748
0.1400000000000001;246967668.0;207910767.0;1433302.0;5951.244266837518;5571.614053763624;-11.634849306340584;69832.14891563056;79750.0;-9917.851084369431
0.1440000000000001;271868110.0;231267700.0;1200356.0;6225.1103481562195;5862.639747174425;-30.027966879051746;68466.5203296754;74333.33333333333;-5866.813003657924
0.1480000000000001;297842282.0;255871582.0;829240.0;6493.542636012069;6164.501695828771;-70.653177896118;67108.0719639624;68500.0;-1391.9280360375978
0.1520000000000001;324868761.0;281151123.0;869439.0;6756.619324498022;6332.432040447852;34.888708518487874;65769.17212148829;65500.0;269.17212148828185
0.1560000000000001;352926590.0;307260132.0;1145534.0;7014.457042144308;6543.703659314246;101.82988967259189;64459.429411571364;60583.333333333336;3876.096078238028
0.16000000000000011;381995397.0;334440308.0;1394586.0;7267.201466212496;6802.644711207773;114.62897265106403;63186.106017046994;55250.0;7936.1060170469955
0.16400000000000012;412055508.0;362664185.0;1623331.0;7515.0272973048395;7076.0525691720995;106.90615310678186;61956.45777308596;56333.333333333336;5623.1244397526225
0.16800000000000012;443088010.0;392382202.0;1361234.0;7758.125023877902;7457.032956645793;-34.52028304357009;60774.43164326564;68083.33333333333;-7308.901690067685
0.17200000000000013;475074758.0;423193359.0;989918.0;7996.68683953722;7709.785854527173;-57.259737517149006;59640.45391482955;76666.66666666667;-17026.21275183712
0.17600000000000013;507998384.0;454784546.0;803879.0;8230.906093767904;7921.466651566896;-35.613199050080766;58554.81355767097;73166.66666666667;-14611.853108995703
0.18000000000000013;541842253.0;487375488.0;565551.0;8460.966797937854;8155.3491750455205;-42.87719102031406;57515.17604248738;66000.0;-8484.823957512617
0.18400000000000014;576590351.0;520801392.0;422645.0;8687.023945301526;8371.769113904395;-32.84618907436379;56514.28684091798;55750.0;764.2868409179755
0.18800000000000014;612227137.0;555051270.0;369757.0;8909.196178100825;8565.471944856865;-0.32548107074035215;55543.05819982482;55750.0;-206.94180017517283
0.19200000000000014;648737407.0;589768066.0;748112.0;9127.567107186433;8702.925610161623;103.03041640585434;54592.732271401925;48750.0;5842.732271401928
0.19600000000000015;686106159.0;625495605.0;998474.0;9342.18748882836;8937.112700911317;100.29673009962426;53655.09541048187;46333.333333333336;7321.762077148527
0.20000000000000015;724318486.0;662036133.0;1303473.0;9553.081225042473;9154.990495367092;112.44006153428927;52723.43405352831;46833.333333333336;5890.100720194972
0.20400000000000015;763359516.0;699807129.0;1230663.0;9760.257134245765;9453.82504390689;23.639483817045402;51793.97730082292;56416.666666666664;-4622.6893658437475
0.20800000000000016;803214422.0;738583374.0;990370.0;9963.725991321291;9702.556209339158;-25.982768906786077;50867.21426888152;63750.0;-12882.785731118474
0.21200000000000016;843868481.0;778392334.0;540273.0;10163.514247023246;9943.431827301463;-80.48465276912975;49947.06392548869;67166.66666666667;-17219.60274117798
0.21600000000000016;885307150.0;818734131.0;365465.0;10359.666874570628;10083.627999478953;-26.166291797757367;49038.15688684562;60666.666666666664;-11628.509779821037
0.22000000000000017;927516152.0;859405518.0;654540.0;10552.249828280534;10165.206650674692;103.05363397553265;48145.73842747632;46500.0;1645.7384274763172
0.22400000000000017;970481568.0;901049194.0;750361.0;10741.353714700557;10427.20831069926;39.930887106655064;47275.97160500591;36250.0;11025.971605005907
0.22800000000000017;1014189914.0;943769531.0;534419.0;10927.08575096363;10695.11201677424;-46.033851020782095;46433.00906576814;44083.333333333336;2349.675732434811
0.23200000000000018;1058628155.0;987390747.0;168747.0;11109.559956847612;10894.260320612351;-73.11866518104762;45618.5514709955;56583.333333333336;-10964.781862337837
0.23600000000000018;1103783738.0;1031336060.0;216819.0;11288.895171534754;11001.457012364259;6.211853422923014;44833.803671785514;55750.0;-10916.196328214482
0.24000000000000019;1149644570.0;1075786743.0;484515.0;11465.207424896022;11097.498422431454;102.93010512677938;44078.063340316934;43000.0;1078.0633403169304
0.2440000000000002;1196198968.0;1120847168.0;855089.0;11638.598836973846;11289.37070021485;105.14755962512572;43347.853019456124;29416.666666666668;13931.186352789457
0.2480000000000002;1243435589.0;1166841431.0;992514.0;11809.154654271588;11515.122424016678;60.47700891784734;42638.95432443541;37166.666666666664;5472.287657768753
0.25200000000000017;1291343359.0;1213796997.0;857774.0;11976.94215271973;11735.139941249268;6.949929043337761;41946.87461203557;47250.0;-5303.125387964428
0.25600000000000017;1339911391.0;1261593018.0;560476.0;12142.007294221256;11965.25739135786;-66.47649812322743;41266.285375381354;55916.666666666664;-14650.381291285306
0.2600000000000002;1389128894.0;1310064697.0;254418.0;12304.37507516317;12124.683975779828;-72.3392294712994;40591.945235478765;54750.0;-14158.05476452124
0.2640000000000002;1438985115.0;1359140625.0;159.0;12464.054797057026;12246.260802390836;-40.8375615861878;39919.930473463864;48250.0;-8330.069526536136
0.2680000000000002;1489469305.0;1408200073.0;407650.0;12621.046758260676;12288.140819886743;96.12234629522573;39247.990300912534;34416.666666666664;4831.3236342458695
0.2720000000000002;1540570698.0;1457913208.0;795973.0;12775.34775798986;12429.78685571843;129.80401658596566;38575.249932296174;25833.333333333332;12741.916598962842
0.2760000000000002;1592278519.0;1508637085.0;797318.0;12926.954528643744;12690.444435876296;25.145057051207914;37901.692663470836;27833.333333333332;10068.359330137508
0.2800000000000002;1644581983.0;1560223389.0;549230.0;13075.865410406152;12905.328558486106;-47.15830220805583;37227.72044060184;45500.0;-8272.279559398157
0.2840000000000002;1697470308.0;1612468872.0;244178.0;13222.08073822366;13067.56810472748;-71.96140511926387;36553.83195437708;52416.666666666664;-15862.83471228959
0.2880000000000002;1750932729.0;1664901123.0;343789.0;13365.604453148313;13112.999015990308;34.74888958315387;35880.928731163294;45833.333333333336;-9952.404602170041
0.2920000000000002;1804958534.0;1717992554.0;364876.0;13506.450846360785;13269.131983557138;24.686602639660123;35211.59830311808;32666.666666666668;2544.9316364514125
0.2960000000000002;1859537141.0;1771517944.0;521916.0;13644.651032224216;13412.573065455457;30.476210609564077;34550.04646585758;27583.333333333332;6966.713132524244
0.3000000000000002;1914658153.0;1825746460.0;535081.0;13780.252313129904;13558.19227983303;25.2359920094641;33900.32022642208;32500.0;1400.3202264220818
0.3040000000000002;1970311433.0;1880667114.0;404850.0;13913.319412022562;13734.113971126739;-19.100366507485887;33266.77472316442;37833.333333333336;-4566.558610168919
0.3080000000000002;2026487189.0;1935911865.0;488969.0;14043.938155244783;13820.137744288295;33.10472262381518;32654.685805555346;38500.0;-5845.314194444654
0.3120000000000002;2083176026.0;1992041016.0;217133.0;14172.208702928901;14034.799852625429;-61.13512086568153;32067.63692102959;36083.333333333336;-4015.696412303747
0.3160000000000002;2140368977.0;2048626099.0;8173.0;14298.237029903948;14158.867109225188;-64.48559124952772;31507.081743761773;37500.0;-5992.918256238227
0.32000000000000023;2198057514.0;2105590210.0;-70234.0;14422.133445058575;14223.973678209331;-5.568360067778485;30974.10378865652;36416.666666666664;-5442.562878010143
0.32400000000000023;2256233539.0;2162603760.0;302706.0;14544.00561388035;14252.050735658948;107.58719774395831;30468.042205443908;26916.666666666668;3551.37553877724
0.32800000000000024;2314889334.0;2219952393.0;832987.0;14663.948094568528;14364.290082893844;141.2562582923838;29985.62017204449;15500.0;14485.620172044491
0.33200000000000024;2374017494.0;2278306274.0;842496.0;14782.03939355992;14609.301382450998;17.772784181774114;29522.824747848063;20583.333333333332;8939.49141451473
0.33600000000000024;2433610861.0;2337681885.0;307154.0;14898.341025076592;14847.003695525465;-123.7294120561728;29075.40787916787;40666.666666666664;-11591.258787498795
0.34000000000000025;2493662443.0;2397365112.0;-66233.0;15012.894691641926;14918.057084471979;-93.44587143371245;28638.416641333606;51583.333333333336;-22944.91669199973
0.34400000000000025;2554165337.0;2457048340.0;22855.0;15125.722825800078;14924.409260343416;19.651813753114766;28207.03353953786;38500.0;-10292.96646046214
0.34800000000000025;2615112674.0;2517165527.0;133503.0;15236.833557191532;15022.97283739848;39.725862607541785;27777.682847863616;20416.666666666668;7361.016181196948
0.35200000000000026;2676497585.0;2577612305.0;363190.0;15346.226906608199;15130.16804690443;54.564515438611124;27348.337354166688;13583.333333333334;13765.004020833354
0.35600000000000026;2738313187.0;2638663330.0;430389.0;15453.89982527635;15283.547405116133;14.514593406287531;26918.22966703785;21916.666666666668;5001.563000371181
0.36000000000000026;2800552587.0;2700395508.0;251320.0;15559.849208902346;15423.445231864302;-24.361912050264436;26487.34590649883;32500.0;-6012.654093501169
0.36400000000000027;2863208882.0;2762330933.0;297003.0;15664.07308002854;15492.913620481602;15.133712935505173;26055.96778154859;32916.666666666664;-6860.698885118076
0.36800000000000027;2926275168.0;2824832153.0;197992.0;15766.570627218909;15629.26969502597;-20.204490889760564;25624.38679759225;30833.333333333332;-5208.946535741081
0.3720000000000003;2989744538.0;2887745361.0;101191.0;15867.341782917803;15720.72118109709;-12.268898876631283;25192.788924723573;26750.0;-1557.2110752764274
0.3760000000000003;3053610088.0;2950636597.0;433655.0;15966.386779698578;15724.38661959299;100.18478974563368;24761.249195193614;22583.333333333332;2177.9158618602814
0.3800000000000003;3117864914.0;3014214478.0;479862.0;16063.705866311875;15930.641177284897;-3.9859907120226126;24329.771653324315;18916.666666666668;5413.104986657647
0.3840000000000003;3182502114.0;3078517456.0;194454.0;16159.299222926476;16062.33420909585;-49.58075194385674;23898.33915365034;27500.0;-3601.6608463496596
0.3880000000000003;3247514786.0;3143155518.0;-39457.0;16253.167056555965;16169.475390976664;-70.13513243642774;23466.958407372204;31916.666666666668;-8449.708259294464
0.3920000000000003;3312896028.0;3207980347.0;-80458.0;16345.309732620837;16204.313131077324;-11.816590125590665;23035.66901621798;34333.333333333336;-11297.664317115356
0.3960000000000003;3378638947.0;3272645874.0;410619.0;16435.729072371178;16174.33065025471;132.4761477939901;22604.83493758511;14416.666666666666;8188.168270918444
0.4000000000000003;3444736681.0;3337855225.0;723750.0;16524.43276552386;16340.031177234487;71.7097623026093;22175.923288170452;8250.0;13925.923288170452
0.4040000000000003;3511182438.0;3404284058.0;176395.0;16611.438469154993;16599.45692654528;-121.50304165313355;21751.425907783414;23250.0;-1498.574092216586
0.4080000000000003;3577969538.0;3470745850.0;-51756.0;16696.774066484024;16613.87087265606;-57.68696130864191;21333.899332257715;36500.0;-15166.100667742285
0.4120000000000003;3645091462.0;3537372437.0;-99288.0;16780.480185718316;16668.748113764985;-28.254596682436386;20926.529808572923;34666.666666666664;-13740.136858093741
0.4160000000000003;3712541921.0;3604147339.0;43662.0;16862.61396551271;16685.511911397352;45.82777618934779;20533.444948599026;17916.666666666668;2616.7782819323584
0.4200000000000003;3780314902.0;3671065063.0;376160.0;16943.244524803973;16742.90040255577;85.82895796835874;20157.639822815327;6000.0;14157.639822815327
0.4240000000000003;3848404693.0;3738762817.0;254814.0;17022.44681157712;16924.955273430565;-19.896801627346576;19800.571693286656;16916.666666666668;2883.9050266199883
0.4280000000000003;3916805897.0;3806597900.0;316433.0;17100.300246468774;16950.78339683462;36.99777145582266;19463.358722913654;22500.0;-3036.6412770863462
0.43200000000000033;3985513434.0;3874894409.0;231329.0;17176.883436819222;17103.429873472647;-40.63232031996813;19145.797587611924;24250.0;-5104.2024123880765
0.43600000000000033;4054522505.0;3943784180.0;-137606.0;17252.267078378227;17202.064213772013;-77.77315941172128;18845.910389751225;29166.666666666668;-10320.756276915443
0.44000000000000034;4123828558.0;4012201538.0;270331.0;17326.51241718835;17114.18439860504;103.76297759193403;18561.334702530985;16916.666666666668;1644.668035864317
0.44400000000000034;4193427241.0;4081365967.0;230955.0;17399.669877466516;17326.403040888803;-35.20948178055551;18289.365069541418;15000.0;3289.365069541418
0.44800000000000034;4263314346.0;4150942383.0;74875.0;17471.77541221878;17385.720433041482;-27.417632220258383;18026.383688065835;16333.333333333334;1693.0503547325006
0.45200000000000035;4333485749.0;4220755005.0;-26424.0;17542.84978152917;17472.103211058835;-45.409504705858126;17768.592327597617;20750.0;-2981.4076724023835
0.45600000000000035;4403937359.0;4290919189.0;-192473.0;17612.90182642584;17526.918378349026;-35.661921603419614;17513.011224167712;28833.333333333332;-11320.32210916562
0.46000000000000035;4474665095.0;4360621948.0;385603.0;17681.93308553442;17439.50172167101;147.28707871383813;17257.81477714463;8833.333333333334;8424.481443811297
0.46400000000000036;4545664866.0;4431258545.0;308454.0;17749.941840044314;17694.74573091602;-41.62102806760231;17002.188627473515;8333.333333333334;8668.855294140181
0.46800000000000036;4616932572.0;4502367554.0;33420.0;17816.925768933677;17741.147474923757;-31.217400896788604;16745.9822223409;21083.333333333332;-4337.351110992433
0.47200000000000036;4688464108.0;4573449097.0;56287.0;17882.883179653905;17811.688231686883;-33.16645825779415;16489.35268005698;21500.0;-5010.647319943018
0.47600000000000037;4760255365.0;4645167847.0;-291723.0;17947.813248628274;17907.349542990636;-77.20926424924983;16232.517243592156;30750.0;-14517.482756407844
0.48000000000000037;4832302231.0;4716381226.0;127864.0;18011.71580008002;17810.297284381195;103.44133588524346;15975.63786293631;8083.333333333333;7892.304529602977
0.4840000000000004;4904600599.0;4788237305.0;162865.0;18074.591015999966;17981.742720982984;-1.9703638043829415;15718.80397998666;10333.333333333334;5385.470646653326
0.4880000000000004;4977146359.0;4860285645.0;259609.0;18136.439230110875;17994.66788315031;52.765715604302386;15462.053527727221;11500.0;3962.053527727221
0.4920000000000004;5049935408.0;4932756958.0;183278.0;18197.261458802288;18169.422496758027;-62.79708570969888;15205.557172853332;13083.333333333334;2122.2238395199984
0.4960000000000004;5122963658.0;5006013794.0;-432787.0;18257.06163457589;18263.60072700378;-122.01866644364054;14950.043943400487;34250.0;-19299.956056599513
0.5000000000000003;5196227057.0;5078226929.0;236541.0;18315.848727724224;18067.723477099797;163.06269977270858;14696.773287083488;12833.333333333334;1863.439953750154
