Zeit[sec];Sollposition[°];Istposition[°];Positionsschleppfehler[°];Sollgeschwindigkeit[°/s];Istgeschwindigkeit[°/s];Geschwindigkeitsdifferenz[°/s];Sollbeschleunigung[°/s*s];Istbeschleunigung[°/s*s];Beschleunigungsdifferenz[°/s*s]
0.0;0.0;5493.0;-5493.0;0.0;-2.1770255774389233;1.8474455774389233;0.0;0.0;0.0
0.004;0.0;10986.0;-10986.0;0.0;2.644872630316216;-3.304032630316216;0.0;-83.33333333333333;83.33333333333333
0.008;0.0;10986.0;-10986.0;0.0;0.34374487031704043;-1.0029048703170405;0.0;83.33333333333333;-83.33333333333333
0.012;0.0;10986.0;-10986.0;0.0;0.03831042197820726;-0.6974704219782073;0.0;0.0;0.0
0.016;0.0;10986.0;-10986.0;0.0;0.0042697027908944135;-0.6634297027908945;0.0;83.33333333333333;-83.33333333333333
0.02;0.0;5493.0;-5493.0;0.0;-1.1853561720203236;0.8557761720203236;0.0;-83.33333333333333;83.33333333333333
0.024;0.0;5493.0;-5493.0;0.0;-0.13210813910528296;-0.19747186089471708;0.0;0.0;0.0
0.028;0.0;10986.0;-10986.0;0.0;0.7238494398187505;-1.3830094398187507;0.0;0.0;0.0
0.032;0.0;10986.0;-10986.0;0.0;0.1048259931748738;-0.7639859931748739;0.0;0.0;0.0
0.036000000000000004;0.0;10986.0;-10986.0;0.0;0.011682874072012028;-0.6708428740720122;0.0;0.0;0.0
0.04000000000000001;0.0;10986.0;-10986.0;0.0;0.0013020582247648704;-0.660462058224765;0.0;0.0;0.0
0.04400000000000001;0.0;10986.0;-10986.0;0.0;0.2569752505930241;-0.9161352505930243;0.0;0.0;0.0
0.048000000000000015;-1133.0;10986.0;-10986.0;-0.28339484848665475;0.636928710696255;-1.296088710696255;-70.84871212166368;0.0;-70.84871212166368
0.05200000000000002;-12430.0;10986.0;-11435.0;-2.8242203546736544;0.5082145057952245;-1.3066761351756755;-635.2063765467499;0.0;-635.2063765467499
0.05600000000000002;-67956.0;10986.0;-16591.0;-13.881615734774986;1.528316025816645;-3.8129079704175592;-2764.348845025333;0.0;-2764.348845025333
0.060000000000000026;-251270.0;10986.0;-45365.0;-45.82840994730431;0.858641722686906;-10.77395892431761;-7986.698553132331;0.0;-7986.698553132331
0.06400000000000003;-715000.0;10986.0;-151298.0;-115.93259609607009;0.33349628857125935;-35.894607333899266;-17526.046537191443;0.0;-17526.046537191443
0.06800000000000003;-1680959.0;10986.0;-445044.0;-241.48967659922744;0.03716821586762036;-100.17624434590995;-31389.27012578934;0.0;-31389.27012578934
0.07200000000000004;-3417221.0;-21973.0;-1073297.0;-434.06546577136606;-8.90753911794568;-220.793530852528;-48143.94729303466;-250.0;-47893.94729303466
0.07600000000000004;-6209205.0;-164795.0;-2198905.0;-697.9959576136562;-44.052762062269665;-404.9888199284317;-65982.62296057252;-1416.6666666666667;-64565.95629390586
0.08000000000000004;-10344340.0;-730591.0;-3783434.0;-1033.7835803295898;-166.5152156059688;-598.0722325022497;-83946.9056789834;-6416.666666666667;-77530.23901231673
0.08400000000000005;-16107761.0;-3251953.0;-4580409.0;-1440.855355210412;-683.5690281892859;-420.83954742399476;-101767.94372020556;-29166.666666666668;-72601.27705353888
0.08800000000000005;-23772235.0;-8173828.0;-4431389.0;-1916.1182210644104;-1247.1753033540788;-211.92170961742363;-118815.7164634996;-78166.66666666667;-40649.04979683293
0.09200000000000005;-33578111.0;-14913940.0;-4198895.0;-2451.468904863737;-1700.2688992321425;-178.56927012615847;-133837.67094983163;-116250.0;-17587.67094983165
0.09600000000000006;-45715321.0;-23461304.0;-4153899.0;-3034.302423450872;-2170.8473917858128;-203.97820719598258;-145708.37964678378;-129500.0;-16208.379646783782
0.10000000000000006;-60313593.0;-34464111.0;-3868758.0;-3649.5677202676898;-2780.8686714266387;-130.6732763702821;-153816.32420420443;-124250.0;-29566.324204204422
0.10400000000000006;-77438092.0;-47774048.0;-3658143.0;-4281.124778383392;-3348.47321113506;-145.8458288354468;-157889.26452892565;-132000.0;-25889.26452892565
0.10800000000000007;-97093076.0;-63583374.0;-3434278.0;-4913.745681392182;-3997.69658594608;-104.72524968691641;-158155.22575219735;-143750.0;-14405.225752197339
0.11200000000000007;-119236567.0;-82073364.0;-3057283.0;-5535.872529074333;-4642.328186523881;-69.35734556348962;-155531.71192053787;-155166.66666666666;-365.0452538712161
0.11600000000000008;-143800438.0;-102639771.0;-3117687.0;-6140.967454645763;-5167.429228500242;-176.33448416234933;-151273.7313928574;-153333.33333333334;2059.601940475972
0.12000000000000008;-170707681.0;-125853882.0;-2992129.0;-6726.810480934781;-5842.138370320872;-109.52730763618183;-146460.75657225447;-152916.66666666666;6455.910094412189
0.12400000000000008;-199882999.0;-151951904.0;-2372907.0;-7293.829130993871;-6549.292202982202;37.21820028964976;-141754.6625147727;-155833.33333333334;14078.670818560653
0.12800000000000009;-231257114.0;-180021973.0;-2095606.0;-7843.528207019585;-7024.777357818877;-49.150844215762845;-137424.7690064285;-158833.33333333334;21408.564326904838
0.1320000000000001;-264766948.0;-210162964.0;-1988432.0;-8377.458179847414;-7577.368104608487;-50.39166607882453;-133482.4932069571;-149583.33333333334;16100.840126376255
0.1360000000000001;-300354018.0;-242990112.0;-1369295.0;-8896.76702161019;-8202.651679357845;68.49177379144021;-129827.21044069421;-143333.33333333334;13506.122892639127
0.1400000000000001;-337962721.0;-277130127.0;-1550191.0;-9402.175376789106;-8566.023560495174;-107.21542497598966;-126352.08879472884;-131333.33333333334;4981.2445386045
0.1440000000000001;-377539168.0;-313582764.0;-1473999.0;-9894.111154797081;-9143.649626831286;-38.90102535709593;-122983.94450199384;-129416.66666666667;6432.722164672825
0.1480000000000001;-419030607.0;-352216187.0;-1217613.0;-10372.859459770649;-9671.447778518677;4.132149327066145;-119687.07624339186;-125750.0;6062.923756608143
0.1520000000000001;-462385334.0;-392788696.0;-969286.0;-10838.68124969076;-10144.945984287422;5.743883209848718;-116455.44748002794;-128166.66666666667;11711.21918663873
0.1560000000000001;-507552779.0;-435020142.0;-956823.0;-11291.860536450526;-10568.853191399803;-43.30154375924576;-113294.82168994128;-128416.66666666667;15121.844976725399
0.16000000000000011;-554483655.0;-478943481.0;-1096008.0;-11732.718502097752;-11005.898813030297;-75.4919983840391;-110214.49141180665;-113583.33333333333;3368.8419215266804
0.16400000000000012;-603130163.0;-524921265.0;-974220.0;-12161.626397584681;-11531.229722689817;8.778038649237715;-107226.9738717323;-109416.66666666667;2189.6927949343735
0.16800000000000012;-653446096.0;-572969971.0;-526279.0;-12578.982684626008;-12009.494516438568;77.72714760857889;-104339.07176033154;-119166.66666666667;14827.594906335136
0.17200000000000013;-705386836.0;-622238159.0;-556447.0;-12985.184274411955;-12305.57817358714;-52.39715841731777;-101550.39744648684;-117833.33333333333;16282.935886846488
0.17600000000000013;-758909338.0;-672764282.0;-980686.0;-13380.625061166475;-12676.800233422538;-119.63074765937745;-98860.19668862992;-101583.33333333333;2723.136644703416
0.18000000000000013;-813972041.0;-725707397.0;-595934.0;-13765.675014856346;-13262.513889834516;87.16756967683978;-96262.48842246787;-95916.66666666667;-345.82175580119656
0.18400000000000014;-870534600.0;-780210571.0;-216660.0;-14140.639090849938;-13615.975608347755;72.00169280864975;-93741.01899839798;-107166.66666666667;13425.647668268695
0.18800000000000014;-928557567.0;-835328979.0;-746600.0;-14505.740939983198;-13795.750200270388;-161.13205983131957;-91275.46228331493;-104500.0;13224.537716685063
0.19200000000000014;-988002105.0;-892413940.0;-794439.0;-14861.133981662018;-14318.520360717688;-12.34519346442903;-88848.26041970518;-88250.0;-598.2604197051842
0.19600000000000015;-1048829832.0;-951668701.0;-117718.0;-15206.93090103449;-14811.826380526325;160.25384118102193;-86449.22984311779;-92166.66666666667;5717.43682354888
0.20000000000000015;-1111002785.0;-1011318970.0;-452070.0;-15543.237525256858;-14909.377293882437;-113.90158213031464;-84076.65605559215;-99083.33333333333;15006.67727774119
0.20400000000000015;-1174483493.0;-1072375488.0;-748536.0;-15870.176215230747;-15321.466472443031;-61.69075648018952;-81734.67249347232;-87416.66666666667;5681.9941731943545
0.20800000000000016;-1239235180.0;-1135640259.0;-167340.0;-16187.921142853176;-15814.778092921346;133.84463213317395;-79436.2319056072;-82666.66666666667;3230.4347610594705
0.21200000000000016;-1305222111.0;-1199388428.0;-396140.0;-16496.731856623763;-15924.719300246088;-93.29055763588076;-77202.67844264663;-84833.33333333333;7630.654890686699
0.21600000000000016;-1372409861.0;-1264367065.0;-651498.0;-16796.93667504013;-16301.750404520542;-45.83745448997615;-75051.20460409217;-83333.33333333333;8282.128729241165
0.22000000000000017;-1440765475.0;-1331449585.0;-24777.0;-17088.902745271218;-16761.033606166427;145.5980475168726;-72991.51755777166;-81166.66666666667;8175.149108895013
0.22400000000000017;-1510257587.0;-1398718872.0;-399244.0;-17373.02726587314;-16841.260434928427;-93.63185238055667;-71031.13015048075;-74666.66666666667;3635.5365161859227
0.22800000000000017;-1580856425.0;-1467432861.0;-484629.0;-17649.7086506236;-17225.377973401613;-3.542706149870355;-69170.346187615;-77000.0;7829.653812385004
0.23200000000000018;-1652533674.0;-1537630005.0;-211738.0;-17919.31138338743;-17526.234066666846;32.467466999700264;-67400.68319095735;-72250.0;4849.316809042648
0.23600000000000018;-1725262317.0;-1608338013.0;-523656.0;-18182.159797911303;-17720.560721920392;-65.83937971259729;-65712.10363096817;-65583.33333333333;-128.77029763483006
0.24000000000000019;-1799016435.0;-1680781860.0;-167601.0;-18438.528710715946;-18127.410461634616;95.4074324072244;-64092.22820116065;-77166.66666666667;13074.43846550602
0.2440000000000002;-1873770918.0;-1753736572.0;-341956.0;-18688.619835209174;-18222.225867217352;-80.55743142786014;-62522.78112330714;-67250.0;4727.218876692859
0.2480000000000002;-1949501141.0;-1827833862.0;-389404.0;-18932.554689954824;-18559.015142899978;-0.5328694052404899;-60983.71368641256;-62750.0;1766.2863135874431
0.25200000000000017;-2026182704.0;-1903123169.0;-235585.0;-19170.38984116847;-18798.96962904575;0.9637130946030084;-59458.787803411724;-67916.66666666667;8457.878863254948
0.25600000000000017;-2103791267.0;-1978978271.0;-482180.0;-19402.140042083473;-19008.978961297427;-45.37514414985344;-57937.5502287503;-54250.0;-3687.550228750297
0.2600000000000002;-2182302469.0;-2056431885.0;-72096.0;-19627.799530482436;-19358.12415308066;92.91678368544672;-56414.87209974093;-69583.33333333333;13168.461233592396
0.2640000000000002;-2261691902.0;-2134116211.0;-348783.0;-19847.357140431086;-19435.663197089478;-75.51637488119377;-54889.40248716244;-58000.0;3110.5975128375576
0.2680000000000002;-2341935124.0;-2213069458.0;-249654.0;-20060.804600926087;-19754.858368415764;26.350659741179697;-53361.86512375025;-58000.0;4638.134876249751
0.2720000000000002;-2423007685.0;-2292654419.0;-387494.0;-20268.139300819956;-19880.87318919648;-73.07570383350685;-51833.67497346717;-55750.0;3916.3250265328315
0.2760000000000002;-2504885164.0;-2373370972.0;-237981.0;-20469.368820358715;-20211.11085989362;55.07309877815351;-50307.37988468991;-50083.333333333336;-224.0465513565723
0.2800000000000002;-2587543279.0;-2454906006.0;-89786.0;-20664.527830993815;-20342.21320325218;-9.882766096459818;-48789.75265877489;-64000.0;15210.247341225113
0.2840000000000002;-2670958060.0;-2536864014.0;-314050.0;-20853.69408242043;-20526.960039205045;-37.45020029487932;-47291.5628566534;-45833.333333333336;-1458.229523320064
0.2880000000000002;-2755106013.0;-2619904175.0;-227436.0;-21036.987326695416;-20744.01066757627;-8.021276557577949;-45823.31106874699;-53583.333333333336;7760.022264586347
0.2920000000000002;-2839964318.0;-2703444214.0;-388436.0;-21214.575146507228;-20916.425168541988;-32.139585272063414;-44396.95495295291;-39583.333333333336;-4813.621619619575
0.2960000000000002;-2925511061.0;-2788291626.0;33675.0;-21386.684834777298;-21194.475172200306;90.17153361236706;-43027.422067517364;-55666.666666666664;12639.2445991493
0.3000000000000002;-3011725407.0;-2873089600.0;-295448.0;-21553.585494172916;-21229.614936904418;-69.88533815630944;-41725.16484890457;-45833.333333333336;4108.1684844287665
0.3040000000000002;-3098587670.0;-2959079590.0;-112862.0;-21715.564748213274;-21493.503648921087;34.88204572097311;-40494.81351008944;-45416.666666666664;4921.853156577221
0.3080000000000002;-3186079371.0;-3045256348.0;-403427.0;-21872.924238161755;-21561.605072915707;-79.4303510071768;-39339.872487120374;-38333.333333333336;-1006.5391537870382
0.3120000000000002;-3274183216.0;-3132806396.0;38592.0;-22025.9601191585;-21883.041170033346;108.35045998918577;-38258.97024918595;-42583.333333333336;4324.363084147386
0.3160000000000002;-3362882961.0;-3220268555.0;-229967.0;-22174.935126366316;-21872.598457975237;-73.87810755467945;-37243.751801954204;-45416.666666666664;8172.91486471246
0.32000000000000023;-3452163251.0;-3308719482.0;-115564.0;-22320.071438978237;-22120.180216673376;29.11668950668536;-36284.07815298033;-37000.0;715.921847019672
0.32400000000000023;-3542009443.0;-3397324219.0;-437257.0;-22461.54699130281;-22160.006281491005;-97.83564463820585;-35368.88808114327;-36416.666666666664;1047.778585523396
0.32800000000000024;-3632407388.0;-3487307739.0;45004.0;-22599.485150468125;-22497.892707219726;125.27907038198464;-34484.53979132864;-34500.0;15.460208671356668
0.33200000000000024;-3723343210.0;-3577120972.0;-203401.0;-22733.954394829496;-22452.376837438303;-75.23558037537441;-33617.31109034281;-44250.0;10632.68890965719
0.33600000000000024;-3814803140.0;-3667796631.0;-135714.0;-22864.98145055698;-22673.90036448356;13.76565110944648;-32756.76393187132;-32833.333333333336;76.56940146201669
0.34000000000000025;-3906773418.0;-3758637085.0;-435731.0;-22992.568574417735;-22726.369031652066;-84.89149774694306;-31896.780965188555;-32250.0;353.21903481144545
0.34400000000000025;-3999240255.0;-3850784912.0;52892.0;-23116.70806885071;-23033.723911367553;122.0974164033214;-31034.873608243288;-30416.666666666668;-618.20694157662
0.34800000000000025;-4092189831.0;-3942723999.0;-172187.0;-23237.39296816045;-22989.681951461345;-61.689632015561074;-30171.224827435253;-40833.333333333336;10662.108505898083
0.35200000000000026;-4185608342.0;-4035437622.0;-113890.0;-23354.626620454506;-23181.208646563697;10.544880688456033;-29308.413073514203;-30916.666666666668;1608.2535931524653
0.35600000000000026;-4279482061.0;-4128294067.0;-390118.0;-23468.428442334203;-23250.386361535835;-56.18785990150718;-28450.455469924236;-27000.0;-1450.4554699242362
0.36000000000000026;-4373797406.0;-4222326050.0;45619.0;-23578.835252470697;-23481.46345675443;85.14024800954576;-27601.702534123433;-28833.333333333332;1231.6307992098991
0.36400000000000027;-4468541052.0;-4316116333.0;-210247.0;-23685.910245197454;-23461.856327995032;-62.2947019017447;-26768.74818168926;-34333.333333333336;7564.585151644074
0.36800000000000027;-4563700070.0;-4410703125.0;-106027.0;-23789.75339551985;-23633.511335648098;6.507816511162673;-25960.787580598662;-29666.666666666668;3705.8790860680056
0.3720000000000003;-4659262048.0;-4505388794.0;-326183.0;-23890.493527134633;-23720.28460339123;-25.741415824293654;-25185.032903696083;-21583.333333333332;-3601.699570362751
0.3760000000000003;-4755215159.0;-4601112671.0;81342.0;-23988.276616239924;-23892.275919859527;68.06961217791104;-24445.772276322714;-29750.0;5304.227723677286
0.3800000000000003;-4851548215.0;-4696556396.0;-189628.0;-24083.262808967113;-23899.612228440437;-40.43817145498542;-23746.548181797152;-27083.333333333332;3336.78515153618
0.3840000000000003;-4948250680.0;-4792637329.0;-210156.0;-24175.615071553086;-23995.29045646863;-42.68311324066963;-23088.065646493305;-27416.666666666668;4328.6010201733625
0.3880000000000003;-5045312630.0;-4889124756.0;-200024.0;-24265.48626419294;-24174.44137946946;43.1174611141505;-22467.798159963422;-16083.333333333334;-6384.464826630088
0.3920000000000003;-5142724706.0;-4986139526.0;-28084.0;-24353.01788453395;-24197.093558582514;-15.2979500763322;-21882.905085252787;-31666.666666666668;9783.76158141388
0.3960000000000003;-5240478050.0;-5083280640.0;-85634.0;-24438.334773896862;-24325.101924168455;20.29928921127066;-21329.222340727938;-20916.666666666668;-412.5556740612701
0.4000000000000003;-5338564184.0;-5180614014.0;-297591.0;-24521.53242240539;-24322.716098034405;-81.47117946756407;-20799.4121271322;-26166.666666666668;5367.254539534468
0.4040000000000003;-5436974877.0;-5278815308.0;20412.0;-24602.67207540226;-24583.245985357225;113.64926743860269;-20284.913249217425;-12583.333333333334;-7701.579915884091
0.4080000000000003;-5535702025.0;-5376857300.0;-150463.0;-24681.78593165705;-24502.350827296064;-59.89249349379679;-19778.464063697356;-29750.0;9971.535936302644
0.4120000000000003;-5634737574.0;-5475503540.0;-38483.0;-24758.886003664607;-24657.986431036516;22.113395437532745;-19275.018001889293;-18583.333333333332;-691.6846685559613
0.4160000000000003;-5734073471.0;-5574083862.0;-305731.0;-24833.97302669754;-24677.205891142443;-53.029316625441425;-18771.755758232757;-20666.666666666668;1894.9109084339107
0.4200000000000003;-5833701654.0;-5673625488.0;83069.0;-24907.044630746237;-24853.18044280095;69.95950597301999;-18267.90101217466;-17250.0;-1017.9010121746614
0.4240000000000003;-5933614073.0;-5772859497.0;-132946.0;-24978.103647019983;-24844.376146432915;-26.105426500544127;-17764.75406843656;-21916.666666666668;4151.912598230108
0.4280000000000003;-6033802733.0;-5872582397.0;-149211.0;-25047.16362876131;-24898.269376921107;-45.47354955062474;-17264.99543533191;-20416.666666666668;3151.671231334756
0.43200000000000033;-6134259736.0;-5972563477.0;-188410.0;-25114.24955628961;-25044.455466191772;28.082376897054928;-16771.481882075022;-11583.333333333334;-5188.1485487416885
0.43600000000000033;-6234977344.0;-6073000488.0;-44834.0;-25179.40080592984;-25047.151827689922;-28.895714788221085;-16287.812410057086;-23750.0;7462.187589942914
0.44000000000000034;-6335948049.0;-6173580322.0;-23756.0;-25242.67512764033;-25173.810822143743;32.697534966609965;-15818.580427622692;-15000.0;-818.5804276226918
0.44400000000000034;-6437164629.0;-6274132690.0;-287819.0;-25304.143731091015;-25142.936275740827;-78.4392044825363;-15367.150862671224;-20500.0;5132.849137328776
0.44800000000000034;-6538620172.0;-6375618896.0;131680.0;-25363.884716552457;-25374.372582815566;115.59766233277696;-14935.246365360399;-10000.0;-4935.246365360399
0.45200000000000035;-6640308103.0;-6476643677.0;-153424.0;-25421.981523767194;-25270.509316972115;-66.16605380306282;-14524.201803684264;-21500.0;6975.798196315736
0.45600000000000035;-6742221465.0;-6578261719.0;-81663.0;-25478.339124735132;-25379.262033739145;-12.206894274662773;-14089.40024198455;-13916.666666666666;-172.73357531788315
0.46000000000000035;-6844349707.0;-6679923706.0;-195625.0;-25532.059366170906;-25473.093796616493;17.37027563283482;-13430.060358943592;-11666.666666666666;-1763.3936922769262
0.46400000000000036;-6946673185.0;-6782244873.0;128304.0;-25580.86839792406;-25521.361019987125;29.751119219621614;-12202.257938288312;-18416.666666666668;6214.408728378356
0.46800000000000036;-7049152085.0;-6884318848.0;-2112.0;-25619.723624611004;-25557.9860522211;6.762714640892227;-9713.806671736165;-14083.333333333334;4369.526661597169
0.47200000000000036;-7151695235.0;-6986458740.0;-246176.0;-25635.786383365157;-25512.06781682423;-98.69064094787609;-4015.6896885382594;-15750.0;11734.31031146174
0.47600000000000037;-7254109571.0;-7089428101.0;219722.0;-25603.582732351104;-25756.853934781717;144.17266464912973;8050.91275351333;-3833.3333333333335;11884.246086846664
0.48000000000000037;-7356064002.0;-7191793213.0;93133.0;-25488.606623924683;-25590.24842734261;-27.08761385046091;28744.027106605245;-16750.0;45494.027106605245
0.4840000000000004;-7457091864.0;-7294301147.0;368321.0;-25256.964211085844;-25601.224356451694;65.1384213223464;57910.603209709734;-3333.3333333333335;61243.93654304307
