Zeit[sec];Sollposition[°];Istposition[°];Positionsschleppfehler[°];Sollgeschwindigkeit[°/s];Istgeschwindigkeit[°/s];Geschwindigkeitsdifferenz[°/s];Sollbeschleunigung[°/s*s];Istbeschleunigung[°/s*s];Beschleunigungsdifferenz[°/s*s]
0.0;-9979199999.0;-9979107056.0;-92943.0;0.0;0.6392121964246035;-6.215792196505265;0.0;0.0;0.0
0.004;-9979199999.0;-9979112549.0;-87450.0;0.0;-1.6309803095310926;-3.6160196904029496;0.0;0.0;0.0
0.008;-9979199999.0;-9979112549.0;-87450.0;0.0;1.3341329609304666;-6.581132960864508;0.0;-83.33333333333333;83.33333333333333
0.012;-9979199999.0;-9979112549.0;-87450.0;0.0;0.5669628907740116;-5.813962890708053;0.0;0.0;0.0
0.016;-9979199999.0;-9979112549.0;-87450.0;0.0;-0.003300406634807587;-5.243699593299234;0.0;-83.33333333333333;83.33333333333333
0.02;-9979199999.0;-9979112549.0;-87450.0;0.0;0.5114922452718019;-5.758492245205844;0.0;83.33333333333333;-83.33333333333333
0.024;-9979199999.0;-9979118042.0;-81957.0;0.0;-1.95900889929384;-2.958411100770581;0.0;0.0;0.0
0.028;-9979199999.0;-9979112549.0;-87450.0;0.0;2.4312090984508394;-7.678209098384881;0.0;83.33333333333333;-83.33333333333333
0.032;-9979199999.0;-9979123535.0;-76464.0;0.0;-2.3725691071897748;-2.2152708927972773;0.0;0.0;0.0
0.036000000000000004;-9979196248.0;-9979123535.0;-76464.0;0.9379976676756109;-3.0218905268087983;-1.5659494731782537;234.4994169189027;0.0;234.4994169189027
0.04000000000000001;-9978944026.0;-9979112549.0;-85962.0;63.055453591542516;3.6160700722634793;-8.401888653143086;15529.363980966726;0.0;15529.363980966726
0.04400000000000001;-9978202813.0;-9979112549.0;16282.0;185.30319092925774;4.440997819758952;22.097024456518596;30561.934334428806;0.0;30561.934334428806
0.048000000000000015;-9976606894.0;-9979035645.0;384021.0;398.97968249149227;23.61065920121223;110.59140265563099;53419.12289055863;750.0;52669.12289055863
0.05200000000000002;-9973674996.0;-9978436890.0;862492.0;732.974402797744;175.46527802103014;145.59052778150794;83498.68007656293;5666.666666666667;77832.01340989627
0.05600000000000002;-9968746033.0;-9976398926.0;945134.0;1232.2407698870006;526.0777852158993;60.781614516669265;124816.59177231416;27250.0;97566.59177231416
0.060000000000000026;-9961147745.0;-9972905273.0;1167356.0;1899.5719830822422;896.8361741994694;102.17390179787697;166832.8032988104;56916.666666666664;109916.13663214374
0.06400000000000003;-9950099391.0;-9967346191.0;1583881.0;2762.0883930598966;1430.072746172443;158.86189382666544;215629.1024944136;87750.0;127879.10249441359
0.06800000000000003;-9934742988.0;-9958985596.0;2173830.0;3839.1003915877186;2149.2594540743157;218.80646491789594;269252.9996319555;117000.0;152252.9996319555
0.07200000000000004;-9914308299.0;-9946735840.0;2660287.0;5108.672094141734;3107.0203067957386;236.64992827819424;317392.9256385039;157500.0;159892.92563850392
0.07600000000000004;-9888247700.0;-9930119019.0;3388088.0;6515.149436590151;4211.024905177914;328.4154922357311;351619.3356121041;207333.33333333334;144286.0022787708
0.08000000000000004;-9856168769.0;-9908102417.0;4007005.0;8019.732376704155;5579.403190782659;319.89659673675396;376145.73502850113;257750.0;118395.73502850112
0.08400000000000005;-9817823873.0;-9880307007.0;4625404.0;9586.223500122978;7017.3608702468355;363.6153548117072;391622.7808547058;305583.3333333333;86039.44752137244
0.08800000000000005;-9773216088.0;-9846265869.0;5112290.0;11151.94570087025;8573.801990927815;364.9411241232956;391430.550186818;345166.6666666667;46263.8835201513
0.09200000000000005;-9722566617.0;-9805907593.0;5545334.0;12662.367280984925;10162.16389368307;368.3853757005254;377605.3950286687;374583.3333333333;3022.0616953353674
0.09600000000000006;-9666238495.0;-9759160767.0;5765030.0;14082.029819223424;11755.37385026437;332.1580532641037;354915.63455962477;388416.6666666667;-33501.03210704191
0.10000000000000006;-9604720816.0;-9706008911.0;5478741.0;15379.418887520715;13339.026819561273;206.08880916199814;324347.2670743226;397916.6666666667;-73569.39959234404
0.10400000000000006;-9538615880.0;-9647545166.0;5367423.0;16526.233233548657;14675.060506760687;235.09085115350354;286703.58650698565;388333.3333333333;-101629.74682634769
0.10800000000000007;-9468576789.0;-9583747559.0;4875863.0;17509.77187619384;16005.756101442017;113.30664623253688;245884.66066129605;366333.3333333333;-120448.67267203727
0.11200000000000007;-9395231647.0;-9515489502.0;4255695.0;18336.28483034185;17105.4467973601;59.366224897323264;206628.2385370023;335250.0;-128621.7614629977
0.11600000000000008;-9319177233.0;-9443655396.0;3748425.0;19013.602509736593;18020.51103603893;36.10289047543483;169329.41984868556;295500.0;-126170.58015131443
0.12000000000000008;-9240977210.0;-9368970337.0;3463321.0;19550.004752873203;18673.416678562327;134.3704392300533;134100.56078415253;254750.0;-120649.43921584745
0.12400000000000008;-9161132595.0;-9292186890.0;3569114.0;19961.15284252372;19191.960028110585;244.49577146698357;102787.02241262909;200916.66666666666;-98129.64425403757
0.12800000000000009;-9080082059.0;-9212915039.0;3136769.0;20262.63311436915;19850.58223895742;47.49946537994765;75370.06796135756;163916.66666666666;-88546.5987053091
0.1320000000000001;-8998184900.0;-9131852417.0;2387254.0;20474.28882203447;20279.42611134161;-57.91488249819304;52913.92691632973;141916.66666666666;-89002.73975033693
0.1360000000000001;-8915735362.0;-9049762573.0;1676553.0;20612.38333138245;20523.780941996047;-78.40295262581276;34523.62733699556;121416.66666666667;-86893.03932967111
0.1400000000000001;-8832805803.0;-8967518921.0;1544109.0;20732.388770880756;20578.072818517045;42.374688585106924;30001.359874576337;87750.0;-57748.64012542366
0.1440000000000001;-8749680265.0;-8884330444.0;992255.0;20781.383693270003;20760.553851161698;-41.86408561886492;12248.730597311805;52583.333333333336;-40334.60273602153
0.1480000000000001;-8666444957.0;-8801691284.0;1357544.0;20808.825841325805;20642.592851906225;189.97112328406365;6860.537013950307;27083.333333333332;-20222.796319383026
0.1520000000000001;-8583179183.0;-8718887329.0;1721500.0;20816.44267547432;20745.416108071706;149.85088849559907;1904.208537129307;7500.0;-5595.791462870693
0.1560000000000001;-8499922266.0;-8635385742.0;1466657.0;20814.228146582835;20861.21773832233;38.46668489407239;-553.6322228717836;9916.666666666666;-10470.29888953845
0.16000000000000011;-8416685834.0;-8552230225.0;1573224.0;20809.106966612995;20804.378354268796;105.53510521449061;-1280.294992459858;7166.666666666667;-8446.961659126526
0.16400000000000012;-8333466872.0;-8468750610.0;1342456.0;20804.73946607026;20869.420819570583;23.337194927931705;-1091.8751356839493;16250.0;-17341.87513568395
0.16800000000000012;-8250257717.0;-8385397339.0;1218811.0;20802.287864724192;20828.217728581818;52.316259222036024;-612.9003365167591;4083.3333333333335;-4696.233669850093
0.17200000000000013;-8167051617.0;-8302126465.0;1163113.0;20801.52406010599;20805.814781652996;67.76503361326468;-190.95115455093037;-166.66666666666666;-24.28448788426371
0.17600000000000013;-8083844594.0;-8219366455.0;1611104.0;20801.754736027004;20701.88341515879;196.7822178203387;57.66898025376577;-6833.333333333333;6891.002313587099
0.18000000000000013;-8000635159.0;-8135820923.0;1272056.0;20802.35769884881;20917.821253954007;-39.87789903198791;150.74070545142604;-8666.666666666666;8817.407372118092
0.18400000000000014;-7917423279.0;-8052209473.0;868580.0;20802.96894867235;20909.24828677626;-55.141037028435676;152.81245588539605;7416.666666666667;-7263.854210781271
0.18800000000000014;-7834209433.0;-7968389282.0;258779.0;20803.460694064866;20968.682576628966;-150.559319761167;122.93634812886012;14750.0;-14627.06365187114
0.19200000000000014;-7750994053.0;-7884766846.0;-151012.0;20803.843978487912;20890.680836135532;-96.58121964042948;95.82110576138803;15750.0;-15654.178894238612
0.19600000000000015;-7667777337.0;-7801430054.0;-273361.0;20804.17795090503;20817.011209324148;-29.803090294917638;83.49310427911405;-4000.0;4083.493104279114
0.20000000000000015;-7584559268.0;-7718598633.0;111118.0;20804.516176909074;20689.994483273425;120.64674425245539;84.5565010113205;-12333.333333333334;12417.889834344654
0.20400000000000015;-7501341268.0;-7635179443.0;-90827.0;20804.4990097593;20850.829243763616;-51.96876840243931;-4.291787443435169;-16166.666666666666;16162.37487922323
0.20800000000000016;-7418127904.0;-7551842651.0;-209585.0;20803.34013410205;20798.363178954427;-6.43089034500008;-289.7189143122887;500.0;-789.7189143122887
0.21200000000000016;-7334925370.0;-7469022217.0;186143.0;20800.632376520083;20722.367579914044;92.84063434341078;-676.9393954918996;-2666.6666666666665;1989.7272711747669
0.21600000000000016;-7251759846.0;-7385597534.0;-29443.0;20791.38005169665;20881.557618787952;-81.05085797143329;-2313.0812058579977;666.6666666666666;-2979.747872524664
0.22000000000000017;-7168698771.0;-7302337646.0;-101407.0;20765.26787350919;20827.45523576211;-36.55981569989308;-6528.044546865203;-1833.3333333333333;-4694.71121353187
0.22400000000000017;-7085831617.0;-7219517212.0;202487.0;20716.78741384796;20693.41851023074;99.81190365812654;-12120.114915307568;2583.3333333333335;-14703.448248640902
0.22800000000000017;-7003281672.0;-7137328491.0;998567.0;20637.48545119999;20569.280724764198;236.8324250405858;-19825.490661992262;-13333.333333333334;-6492.157328658928
0.23200000000000018;-6921246789.0;-7054101563.0;514161.0;20508.719699266265;20817.75751446254;-101.27836451802432;-32191.43798343157;-15416.666666666666;-16774.771316764905
0.23600000000000018;-6839979249.0;-6971522827.0;283014.0;20316.884061906832;20635.4233023832;-31.54595992269242;-47958.90933985811;-1666.6666666666667;-46292.242673191446
0.24000000000000019;-6759775420.0;-6889339600.0;-166551.0;20050.956158178135;20556.740194565555;-133.31890125279097;-66481.97593217446;-2250.0;-64231.975932174464
0.2440000000000002;-6681001485.0;-6808189087.0;-466773.0;19693.48279690814;20257.588243366718;-73.02278322710117;-89368.34031749822;-18500.0;-70868.34031749822
0.2480000000000002;-6604083589.0;-6728170166.0;-842563.0;19229.47305322985;19992.896854495622;-132.6689072288791;-116002.43591957315;-51833.333333333336;-64169.10258623981
0.25200000000000017;-6529472011.0;-6650112305.0;-854001.0;18652.89361942509;19487.33699349528;-26.972299327149813;-144144.85845118997;-67333.33333333333;-76811.52511785665
0.25600000000000017;-6457621120.0;-6573905640.0;-1046314.0;17962.722046297586;19030.824749719643;-90.01646584782429;-172542.89328187588;-97666.66666666667;-74876.2266152092
0.2600000000000002;-6389000039.0;-6499967651.0;-1453781.0;17155.26950586157;18435.025980338534;-139.6230706077331;-201863.13510900346;-112583.33333333333;-89279.80177567012
0.2640000000000002;-6324070915.0;-6429320068.0;-1514866.0;16232.280133647324;17638.471067774;-82.73932325201895;-230747.34305356196;-142583.33333333334;-88164.00972022861
0.2680000000000002;-6263243585.0;-6361715698.0;-1943034.0;15206.831765194618;16863.83301091936;-186.36524220267893;-256362.09211317645;-166583.33333333334;-89778.75877984312
0.2720000000000002;-6206886990.0;-6298203735.0;-2130537.0;14089.147979883504;15808.198887048711;-104.9170880093443;-279420.94632777845;-198083.33333333334;-81337.6129944451
0.2760000000000002;-6155322604.0;-6239267578.0;-1987907.0;12891.095912357781;14697.388704212879;-46.96702955100591;-299513.01688143075;-231750.0;-67763.01688143075
0.2800000000000002;-6108787358.0;-6184780884.0;-1991846.0;11633.810966362222;13565.64708299575;-64.46985989303357;-314321.2364988899;-258333.33333333334;-55987.90316555656
0.2840000000000002;-6067453484.0;-6135188599.0;-1985641.0;10333.468005870813;12348.410006521213;-67.9265538402251;-325085.74012285226;-284750.0;-40335.74012285226
0.2880000000000002;-6031390339.0;-6090836792.0;-1834997.0;9015.785769385531;11041.440750780788;-25.928366414160337;-329420.5591213204;-295916.6666666667;-33503.89245465368
0.2920000000000002;-6000493629.0;-6051203613.0;-2193587.0;7724.177301700677;9852.023850824542;-164.9922859010676;-322902.1169212135;-307833.3333333333;-15068.783587880205
0.2960000000000002;-5974553636.0;-6016931763.0;-2419820.0;6484.997790148998;8500.68343847352;-134.46865078835253;-309794.8778879197;-313166.6666666667;3371.7887787469754
0.3000000000000002;-5953309215.0;-5988043213.0;-2346649.0;5311.105043747239;7189.407960369196;-89.77689445348278;-293473.18660043995;-322500.0;29026.81339956007
0.3040000000000002;-5936408217.0;-5963774414.0;-2508132.0;4225.24944572051;6009.112206042879;-132.77165031748245;-271463.89950668206;-320833.3333333333;49369.433826651235
0.3080000000000002;-5923398937.0;-5944114380.0;-2618331.0;3252.3197231849117;4863.733882647351;-133.37519921304283;-243232.43063389964;-313500.0;70267.56936610036
0.3120000000000002;-5913763858.0;-5928717041.0;-2632229.0;2408.769719895338;3845.7035973229113;-157.77688941618408;-210887.50082239346;-293416.6666666667;82529.16584427323
0.3160000000000002;-5906944424.0;-5916747437.0;-2907567.0;1704.8583661781024;2949.126554185312;-200.0144867429408;-175977.83842930887;-267833.3333333333;91855.49490402445
0.32000000000000023;-5902336786.0;-5908079224.0;-3037290.0;1151.9093913064235;2148.2819050718285;-195.89676250992693;-138237.24371791974;-243250.0;105012.75628208026
0.32400000000000023;-5899372972.0;-5902091675.0;-3065849.0;740.953455044444;1479.4224261531717;-173.62614809574234;-102738.98406549486;-210166.66666666666;107427.6826011718
0.32800000000000024;-5897704856.0;-5897911377.0;-3277300.0;417.02904236511324;1036.02410964093;-240.4503904762422;-80981.1031698327;-180833.33333333334;99852.23016350064
0.33200000000000024;-5896992383.0;-5895236206.0;-3492749.0;178.11832924677336;654.2569266694524;-248.89143499436466;-59727.67827958497;-141750.0;82022.32172041503
0.33600000000000024;-5896725743.0;-5893846436.0;-3585709.0;66.65997223655124;342.1184034020566;-233.05827120292565;-27864.58925255553;-110000.0;82135.41074744448
0.34000000000000025;-5896714771.0;-5893385010.0;-3505828.0;2.7429276722781575;106.7298499459587;-181.7528302571636;-15979.261141068271;-85000.0;69020.73885893173
0.34400000000000025;-5896711314.0;-5893505859.0;-3217095.0;0.8642866530606763;-19.685041491169482;-131.3697194275447;-469.6602548043703;-68750.0;68280.33974519563
0.34800000000000025;-5896760295.0;-5893544312.0;-3169152.0;-12.24515433105578;-9.618275681253524;-178.15825452378974;-3277.360246029114;-43000.0;39722.639753970885
0.35200000000000026;-5896825803.0;-5893747559.0;-2983195.0;-16.377079570547203;-50.018637640066444;-133.2954565598264;-1032.9813098728557;-21000.0;19967.018690127145
0.35600000000000026;-5896814728.0;-5894044189.0;-2741792.0;2.7686055544693713;-69.19253756274283;-109.12156743364567;4786.421281254144;-7500.0;12286.421281254143
0.36000000000000026;-5896803796.0;-5894296875.0;-2524152.0;2.7330500948751904;-59.99568712624535;-100.21533694411042;-8.888864898545235;-3750.0;3741.1111351014547
0.36400000000000027;-5896797539.0;-5894516602.0;-2293856.0;1.56433198043738;-53.055081125624476;-81.93395225289285;-292.1795286094526;-2583.3333333333335;2291.153804723881
0.36800000000000027;-5896795791.0;-5894653931.0;-2147447.0;0.4368480757523475;-36.229333775352686;-90.34760626817462;-281.8709761712581;1916.6666666666667;-2198.537642837925
0.3720000000000003;-5896796633.0;-5894807739.0;-1989143.0;-0.21046412150954386;-39.91106111829355;-78.31336869483744;-161.82804931547284;2750.0;-2911.828049315473
0.3760000000000003;-5896798231.0;-5894972534.0;-1823601.0;-0.3993287494952832;-37.763946579325946;-71.46530816592019;-47.21615699643483;1333.3333333333333;-1380.549490329768
0.3800000000000003;-5896799516.0;-5895076904.0;-1720358.0;-0.32131298636736055;-29.23391827438772;-74.2691148761754;19.50394078198066;1000.0;-980.4960592180194
0.3840000000000003;-5896800142.0;-5895131836.0;-1666895.0;-0.15656128465947294;-13.356923695258796;-87.02406639439555;41.1879254269719;1166.6666666666667;-1125.4787412396947
0.3880000000000003;-5896800182.0;-5895186768.0;-1612989.0;-0.010071307713163632;-13.21684015198052;-83.8189484824828;36.622494236577325;2416.6666666666665;-2380.044172430089
0.3920000000000003;-5896872266.0;-5895258179.0;-1541975.0;-18.02092810538697;-16.989648873731493;-75.62829676604181;-4502.714199418452;1416.6666666666667;-5919.380866085119
0.3960000000000003;-5896906366.0;-5895285645.0;-1543117.0;-8.525004082082953;-6.295920565970242;-93.4430523820183;2373.9810058260045;666.6666666666666;1707.314339159338
0.4000000000000003;-5896948247.0;-5895357056.0;-1528308.0;-10.470121209156414;-16.379142857417463;-89.46974738250843;-486.2792817683652;83.33333333333333;-569.6126151016986
0.4040000000000003;-5897002653.0;-5895450439.0;-1472332.0;-13.601467371508061;-17.093228386729955;-80.59854442356709;-782.8365405879118;-750.0;-32.836540587911855
0.4080000000000003;-5897074708.0;-5895477905.0;-1491668.0;-18.01394593650335;-4.89677927326411;-96.30355459130148;-1103.1196412488225;0.0;-1103.1196412488225
0.4120000000000003;-5897168525.0;-5895565796.0;-1465107.0;-23.454279060993905;-21.879586276248098;-81.3594321699029;-1360.0832811226385;83.33333333333333;-1443.4166144559717
0.4160000000000003;-5897287978.0;-5895675659.0;-1435824.0;-29.8630764397316;-27.679944509405644;-78.61459413915675;-1602.1993446844237;-166.66666666666666;-1435.5326780177572
0.4200000000000003;-5897436533.0;-5895796509.0;-1418828.0;-37.13870482248922;-30.520496535036713;-80.57257359729138;-1818.9070956894043;-1333.3333333333333;-485.573762356071
0.4240000000000003;-5897615511.0;-5895939331.0;-1406847.0;-44.74455340065373;-37.23556691293791;-79.88545095168797;-1901.462144541128;-1750.0;-151.46214454112794
0.4280000000000003;-5897824190.0;-5896142578.0;-1364047.0;-52.16978940894979;-51.196288899160926;-70.7582054081376;-1856.309002074015;-1500.0;-356.30900207401515
0.43200000000000033;-5898060949.0;-5896373291.0;-1323909.0;-59.18974625524975;-55.97288708159328;-71.10563085806925;-1754.9892115749906;-2250.0;495.0107884250094
0.43600000000000033;-5898323863.0;-5896653442.0;-1263397.0;-65.72848391664694;-74.43279593713582;-56.28060943226298;-1634.6844153492964;-2250.0;615.3155846507037
0.44000000000000034;-5898611086.0;-5896950073.0;-1213730.0;-71.80576596811885;-74.18404914706946;-60.38087186346337;-1519.3205128679779;-2666.6666666666665;1147.3461537986886
0.44400000000000034;-5898920900.0;-5897307129.0;-1129073.0;-77.45351524618312;-91.06024244467542;-44.78385593182867;-1411.937319516067;-2000.0;588.062680483933
0.44800000000000034;-5899251446.0;-5897719116.0;-1013123.0;-82.63641291560977;-101.9730249186419;-32.82375631760317;-1295.7244173566628;-3166.6666666666665;1870.9422493100037
0.45200000000000035;-5899600607.0;-5898164063.0;-886078.0;-87.29023778194745;-103.6809714218229;-28.95906948660388;-1163.4562165844216;-2916.6666666666665;1753.210450082245
0.45600000000000035;-5899965907.0;-5898581543.0;-806403.0;-91.324995129116;-104.41010450231285;-28.42528871574099;-1008.6893367921377;-2000.0;991.3106632078623
0.46000000000000035;-5900344272.0;-5898960571.0;-782826.0;-94.59137014274017;-95.10774456407874;-40.72450295781944;-816.5937534060425;-250.0;-566.5937534060425
0.46400000000000036;-5900732156.0;-5899312134.0;-801648.0;-96.97086738525859;-88.71062260746211;-51.984678021174176;-594.8743106296029;1666.6666666666667;-2261.5409772962694
0.46800000000000036;-5901125660.0;-5899713135.0;-782710.0;-98.37594627175778;-103.41748823238537;-39.06077647118484;-351.26972162479933;1083.3333333333333;-1434.6030549581326
0.47200000000000036;-5901520311.0;-5900207520.0;-678381.0;-98.66293579843529;-114.95674857487529;-23.260128267835483;-71.74738166937544;-1416.6666666666667;1344.9192849972912
0.47600000000000037;-5901911216.0;-5900553589.0;-726238.0;-97.72626741910713;-83.26011225279794;-58.79566799795944;234.16709483203846;-1166.6666666666667;1400.8337614987051
0.48000000000000037;-5902293099.0;-5900905151.0;-767835.0;-95.47055316767364;-92.50453743738309;-51.85544240480256;563.9285628583721;833.3333333333334;-269.40477047496125
