Zeit[sec];Sollposition[°];Istposition[°];Positionsschleppfehler[°];Sollgeschwindigkeit[°/s];Istgeschwindigkeit[°/s];Geschwindigkeitsdifferenz[°/s];Sollbeschleunigung[°/s*s];Istbeschleunigung[°/s*s];Beschleunigungsdifferenz[°/s*s]
0.0;9817499999.0;9817465210.0;34789.0;0.0;-4.513052759334445;6.600392759386352;0.0;83.33333333333333;-83.33333333333333
0.004;9817499999.0;9817492676.0;7323.0;0.0;5.481997371464968;-5.04261737145947;0.0;0.0;0.0
0.008;9817499999.0;9817492676.0;7323.0;0.0;9.632446610145271;-9.193066610139773;0.0;0.0;0.0
0.012;9817499999.0;9817465210.0;34789.0;0.0;-8.691691622123122;10.77903162217503;0.0;166.66666666666666;-166.66666666666666
0.016;9817499999.0;9817476196.0;23803.0;0.0;-9.106716649897397;10.534896649961597;0.0;83.33333333333333;-83.33333333333333
0.02;9817499999.0;9817503662.0;-3663.0;0.0;4.512836728751659;-4.732616728801995;0.0;-83.33333333333333;83.33333333333333
0.024;9817499999.0;9817503662.0;-3663.0;0.0;5.880974900998175;-6.100754901048511;0.0;-166.66666666666666;166.66666666666666
0.028;9817499999.0;9817492676.0;7323.0;0.0;-3.028359203130007;3.467739203135505;0.0;0.0;0.0
0.032;9817499999.0;9817503662.0;-3663.0;0.0;2.3605279783830047;-2.580307978433341;0.0;83.33333333333333;-83.33333333333333
0.036000000000000004;9817499999.0;9817492676.0;7323.0;0.0;-3.640789836473763;4.080169836479261;0.0;-83.33333333333333;83.33333333333333
0.04000000000000001;9817499999.0;9817503662.0;-3663.0;0.0;3.6876671671941876;-3.907447167244524;0.0;-83.33333333333333;83.33333333333333
0.04400000000000001;9817499999.0;9817498169.0;1830.0;0.0;-0.34453733480721715;0.45433733481886185;0.0;0.0;0.0
0.048000000000000015;9817499999.0;9817503662.0;-3663.0;0.0;4.902180402874946;-5.121960402925282;0.0;0.0;0.0
0.05200000000000002;9817499999.0;9817487183.0;12816.0;-8.515934755133369e-10;-4.249412696607411;5.018372696606763;-2.1289836887833425e-07;0.0;-2.1289836887833425e-07
0.05600000000000002;9817499999.0;9817503662.0;-3663.0;-5.67728983675558e-10;3.591984731003642;-3.8117647313916216;7.096612295944474e-08;0.0;7.096612295944474e-08
0.060000000000000026;9817416599.0;9817503662.0;-3663.0;-20.850165160573244;3.915127433426678;-4.13490743421107;-5212.541290001379;0.0;-5212.541290001379
0.06400000000000003;9817342577.0;9817481689.0;-14758.0;-18.50553187718596;-5.687521226063371;-3.4647234766164097;586.1583208468213;0.0;586.1583208468213
0.06800000000000003;9817252117.0;9817459717.0;-71979.0;-22.615021416122033;-4.139947151899338;-19.977178610307156;-1027.3723847340186;-500.0;-527.3723847340186
0.07200000000000004;9817156865.0;9817393799.0;-86655.0;-23.81296418157177;-10.784110004492105;-14.563808349779295;-299.4856913624337;-1000.0;700.5143086375663
0.07600000000000004;9817061179.0;9817349854.0;-134974.0;-23.921397713644513;-10.87381419505924;-20.290533769551576;-27.10838301818619;-916.6666666666666;889.5582836484805
0.08000000000000004;9816964331.0;9817289429.0;-169945.0;-24.21209309109197;-9.822192372024059;-24.22344481481348;-72.67384436186397;-833.3333333333334;760.6594889714694
0.08400000000000005;9816868822.0;9817267456.0;-244116.0;-23.877190120155564;-5.15062313349545;-33.53235540245159;83.72574273410116;416.6666666666667;-332.9409239325655
0.08800000000000005;9816782779.0;9817239990.0;-312960.0;-21.51068135138299;-4.553059708513319;-38.30214629431568;591.627192193144;416.6666666666667;174.96052552647728
0.09200000000000005;9816712634.0;9817207031.0;-371765.0;-17.53627179889535;-12.29755622573942;-32.94921246639876;993.6023881219098;1000.0;-6.397611878090181
0.09600000000000006;9816660931.0;9817130127.0;-374656.0;-12.925678015729881;-12.885714027263225;-29.542402299138246;1152.648445791367;-916.6666666666666;2069.3151124580336
0.10000000000000006;9816630325.0;9817080688.0;-388143.0;-7.651578666494308;-14.46749738174677;-24.552613578585692;1318.5248373088932;-416.6666666666667;1735.1915039755597
0.10400000000000006;9816620839.0;9817075195.0;-426097.0;-2.3714226073294427;1.2708965430557728;-37.69831177263596;1320.0390147912165;-500.0;1820.0390147912165
0.10800000000000007;9816628139.0;9817042236.0;-415494.0;1.824909318542824;-7.70165752966702;-22.816964687675544;1049.0829814680667;1333.3333333333333;-284.25035186526657
0.11200000000000007;9816646810.0;9817047729.0;-423940.0;4.667844533625155;0.6709705264493823;-26.845951507375503;710.7338037705828;666.6666666666666;44.06713710391619
0.11600000000000008;9816672260.0;9817058716.0;-423217.0;6.362362383429649;0.27480971357226375;-22.740328885417313;423.6294624511234;1083.3333333333333;-659.7038708822098
0.12000000000000008;9816702640.0;9817014771.0;-357980.0;7.594980655336987;-11.246783345930279;-4.9089800934234695;308.15456797683447;-250.0;558.1545679768345
0.12400000000000008;9816739757.0;9817025757.0;-341601.0;9.27935772379005;4.956380821846426;-18.611293368817535;421.0942671132656;-333.3333333333333;754.427600446599
0.12800000000000009;9816785649.0;9817020264.0;-303086.0;11.472844590251784;-7.30874654443562;-2.620825983632648;548.3717166154336;333.3333333333333;215.03838328210028
0.1320000000000001;9816841681.0;9817020264.0;-262529.0;14.008097083089664;8.864021921113133;-14.476590324920807;633.8131232094702;-500.0;1133.8131232094702
0.1360000000000001;9816910174.0;9816943359.0;-135764.0;17.123107888580087;-31.483224429681897;35.80256455790386;778.7527013726057;1083.3333333333333;-304.5806319607276
0.1400000000000001;9816991891.0;9817102661.0;-234152.0;20.42936615213058;49.00500166934729;-47.8258264690156;826.5645658876233;-1166.6666666666667;1993.23123255429
0.1440000000000001;9817083519.0;9817003784.0;-61612.0;22.907002557501407;-4.153684055522084;18.872699668920266;619.4091013427068;1750.0;-1130.5908986572933
0.1480000000000001;9817179064.0;9817124634.0;-96893.0;23.88636426939138;24.696172813124956;-9.117415146429964;244.84042797249293;166.66666666666666;78.17376130582629
0.1520000000000001;9817273367.0;9817075195.0;45669.0;23.575729888961604;-2.2608255054578184;28.28175227835375;-77.65859510744377;1000.0;-1077.6585951074437
0.1560000000000001;9817362407.0;9817179565.0;36329.0;22.259845019742286;13.00463670206815;12.932567441652292;-328.97121730482934;500.0;-828.9712173048293
0.16000000000000011;9817441910.0;9817185059.0;123058.0;19.875784247183528;13.608392479747534;16.830909742506513;-596.0151931396896;-583.3333333333334;-12.681859806356165
0.16400000000000012;9817499999.0;9817212524.0;180883.0;14.522399690039345;-6.2490979633554815;38.42439040056127;-1338.3461392860459;1000.0;-2338.346139286046
0.16800000000000012;9817565697.0;9817283936.0;180540.0;16.42437209090107;22.858780851230026;5.74083917173818;475.49310021543124;-1250.0;1725.4931002154312
0.17200000000000013;9817608072.0;9817256470.0;269237.0;10.593711048697433;-1.7902409080043435;33.25233042431741;-1457.6652605509094;666.6666666666666;-2124.331927217576
0.17600000000000013;9817636764.0;9817294922.0;287191.0;7.173077164220327;6.4471653795763855;24.885756342639382;-855.1584711192763;-1166.6666666666667;311.5081955473904
0.18000000000000013;9817654818.0;9817283936.0;335264.0;4.5135853994789015;3.7305693118572236;25.65691787850999;-664.8729411853565;-83.33333333333333;-581.5396078520231
0.18400000000000014;9817666517.0;9817289429.0;354325.0;2.9247021815478726;-4.783570805832744;32.18174381650341;-397.2208044827572;-416.6666666666667;19.44586218390948
0.18800000000000014;9817675514.0;9817322388.0;336963.0;2.2490597415994054;13.928190661244095;10.188790328157712;-168.91060998711683;-333.3333333333333;164.4227233462165
0.19200000000000014;9817684068.0;9817283936.0;386080.0;2.138653511975688;-13.420897307373584;39.2518276809625;-27.601557405929288;333.3333333333333;-360.9348907392626
0.19600000000000015;9817693113.0;9817333374.0;345479.0;2.2612776128041387;9.632393162049354;13.305591076993334;30.656025207112634;-333.3333333333333;363.98935854044595
0.20000000000000015;9817702724.0;9817322388.0;365216.0;2.4027118147818602;0.2959790959656239;23.8048998674502;35.358550494430375;250.0;-214.64144950556962
0.20400000000000015;9817712614.0;9817349854.0;347017.0;2.472452688609489;5.672873568139971;17.46478199518626;17.435218456907208;-83.33333333333333;100.76855179024054
0.20800000000000016;9817722462.0;9817366333.0;340256.0;2.4619684309390695;8.473058941558003;14.371835323926083;-2.6210644176049014;250.0;-252.6210644176049
0.21200000000000016;9817732053.0;9817377319.0;339141.0;2.397696463160196;1.1310943406298757;21.685252865685683;-16.06799194471842;250.0;-266.0679919447184
0.21600000000000016;9817741290.0;9817410278.0;315929.0;2.3093673524121483;13.607627212323248;7.784659818776785;-22.082277687011874;0.0;-22.082277687011874
0.22000000000000017;9817750156.0;9817404785.0;330874.0;2.2164500453556513;-5.474335133843124;27.689827078215338;-23.22932676412426;250.0;-273.22932676412427
0.22400000000000017;9817758664.0;9817432251.0;312500.0;2.126922481999953;1.2661790454611181;19.756865600009583;-22.381890838924612;-83.33333333333333;60.95144249440872
0.22800000000000017;9817766829.0;9817448730.0;304747.0;2.0413081760277514;-0.4643973446413875;20.930715547295776;-21.40357649305036;0.0;-21.40357649305036
0.23200000000000018;9817774657.0;9817465210.0;296641.0;1.957161121330999;2.3459880670160054;17.54597425599979;-21.03676367418811;-250.0;228.9632363258119
0.23600000000000018;9817782145.0;9817492676.0;277209.0;1.87195147100466;7.769468346744776;10.871518483158304;-21.30241258158472;83.33333333333333;-104.63574591491805
0.24000000000000019;9817789282.0;9817492676.0;284904.0;1.7841931538413418;-0.3653951571583748;19.383505032714357;-21.93957929082957;-83.33333333333333;61.39375404250376
0.2440000000000002;9817796056.0;9817531128.0;253803.0;1.6934506657892605;10.594051723107695;6.47178422170971;-22.685622013020325;250.0;-272.68562201302035
0.2480000000000002;9817802455.0;9817520142.0;271784.0;1.5999166216800296;-7.289200625658036;25.34497000960647;-23.383511027307733;-83.33333333333333;59.949822306025595
0.25200000000000017;9817808471.0;9817542114.0;256439.0;1.5039964887280945;-2.0919615814760326;19.135199154549316;-23.980033237983754;83.33333333333333;-107.31336657131709
0.25600000000000017;9817814096.0;9817547607.0;257195.0;1.406064172958239;-5.714926384210587;22.709060222871692;-24.483078942463877;-333.3333333333333;308.85025439086945
0.2600000000000002;9817819321.0;9817575073.0;235593.0;1.3063818771629285;-0.06977021387964487;15.671080101621406;-24.92057394882763;-83.33333333333333;58.4127593845057
0.2640000000000002;9817824222.0;9817602539.0;213596.0;1.2251470152550665;6.749182351864874;7.433693170439527;-20.3087154769655;0.0;-20.3087154769655
0.2680000000000002;9817828968.0;9817608032.0;213202.0;1.1864761149393834;4.361686727784575;9.705190871867567;-9.667725078920775;0.0;-9.667725078920775
0.2720000000000002;9817833631.0;9817630005.0;196070.0;1.1658177786126394;8.9480445580706;4.0264460349403794;-5.164584081686019;83.33333333333333;-88.49791741501934
0.2760000000000002;9817840522.0;9817613525.0;217264.0;1.7227498065901814;-6.445881381206214;20.66023337584279;139.2330069943855;-83.33333333333333;222.56634032771885
0.2800000000000002;9817854656.0;9817646484.0;189852.0;3.533516900203449;3.3032208576649427;9.474652812906637;452.691773403317;83.33333333333333;369.3584400699836
0.2840000000000002;9817877883.0;9817646484.0;199602.0;5.806787301811724;-3.044175570987165;17.457722963364475;568.3176004020687;-166.66666666666666;734.9842670687353
0.2880000000000002;9817907403.0;9817684937.0;178845.0;7.3799100577177255;9.317003500789404;5.837919630379277;393.28068897650036;83.33333333333333;309.94735564316704
0.2920000000000002;9817939346.0;9817723389.0;166062.0;7.985661689452619;18.60455206979066;-2.2236461190904464;151.43790793372335;166.66666666666666;-15.228758732943298
0.2960000000000002;9817969524.0;9817728882.0;191013.0;7.54463885208677;3.2573817614540457;15.814261837194245;-110.25570934146222;500.0;-610.2557093414622
0.3000000000000002;9817993783.0;9817772827.0;178297.0;6.064715875089909;8.129508247256279;10.37556545224491;-369.9807442492153;416.6666666666667;-786.647410915882
0.3040000000000002;9818009353.0;9817816772.0;162193.0;3.8925964307911887;11.0756431433931;5.61639349034102;-543.02986107468;250.0;-793.02986107468
0.3080000000000002;9818015440.0;9817844238.0;155576.0;1.521717045572247;7.306793702453375;7.23994217596153;-592.7198463047354;83.33333333333333;-676.0531796380687
0.3120000000000002;9818011344.0;9817866211.0;145464.0;-1.0241233151917117;7.627962073467672;4.065184988498689;-636.4600901909897;-250.0;-386.4600901909897
0.3160000000000002;9817995675.0;9817882690.0;131090.0;-3.917050480757191;5.474040765322745;2.9175822273356706;-723.2317913913698;-250.0;-473.2317913913698
0.32000000000000023;9817969565.0;9817882690.0;122465.0;-6.527702452447012;2.9689083806276324;2.222784918402713;-652.6629929224553;-750.0;97.33700707754478
0.32400000000000023;9817935582.0;9817871704.0;113710.0;-8.495774109620365;-4.77657597579062;6.663993524784463;-492.0179142933383;-333.3333333333333;-158.68458096000498
0.32800000000000024;9817894748.0;9817877197.0;79046.0;-10.208442756053792;1.707310621574521;-4.257265946111251;-428.16716160835665;-583.3333333333334;155.16617172497672
0.33200000000000024;9817848900.0;9817849731.0;69859.0;-11.46183492523864;-8.836537324734032;3.864788527028752;-313.3480422962118;-83.33333333333333;-230.0147089628785
0.33600000000000024;9817801356.0;9817849731.0;27077.0;-11.886072784803725;-3.5778912803977727;-5.492846718689246;-106.05946489127138;-333.3333333333333;227.27386844206194
0.34000000000000025;9817754638.0;9817827759.0;2558.0;-11.679445555104767;-2.72352098608762;-8.745693527044086;51.65680742473944;-250.0;301.65680742473944
0.34400000000000025;9817710188.0;9817816772.0;-33661.0;-11.11249822551963;-6.2218290732055905;-7.59949347489791;141.7368323962842;0.0;141.7368323962842
0.34800000000000025;9817669130.0;9817794800.0;-57513.0;-10.264530180717376;-3.473793002575636;-11.432857501387078;211.99201120056355;-333.3333333333333;545.3253445338969
0.35200000000000026;9817632043.0;9817794800.0;-100631.0;-9.271725886981796;-0.4396039940714836;-16.37787010818631;248.20107343389486;333.3333333333333;-85.13225989943845
0.35600000000000026;9817597998.0;9817783813.0;-129148.0;-8.511376714885346;-3.253194212503731;-14.371553141053285;190.08729302411265;83.33333333333333;106.75395969077931
0.36000000000000026;9817566310.0;9817772827.0;-154066.0;-7.92200822635067;-3.879125419460237;-14.340911113841504;147.34212213366905;333.3333333333333;-185.99121119966426
0.36400000000000027;9817499999.0;9817745361.0;-159728.0;-16.577581031457385;-10.893337644845248;-6.972498844245683;-2163.8932012766786;-83.33333333333333;-2080.5598679433456
0.36800000000000027;9817499999.0;9817756348.0;-216145.0;0.0;-2.3367618739902976;-21.98919905719976;4144.395257864346;-166.66666666666666;4311.061924531013
0.3720000000000003;9817499999.0;9817734375.0;-233988.0;0.0;-3.1066500833556057;-20.88674284696374;0.0;-83.33333333333333;83.33333333333333
0.3760000000000003;9817499999.0;9817728882.0;-228883.0;0.0;2.253638266287744;-16.083752530141627;0.0;-166.66666666666666;166.66666666666666
0.3800000000000003;9817499999.0;9817723389.0;-223390.0;0.0;-2.1236143609657883;-11.279785639038044;0.0;250.0;-250.0
0.3840000000000003;9817499999.0;9817728882.0;-228883.0;0.0;2.0015315593630074;-15.734511559360692;0.0;333.3333333333333;-333.3333333333333
0.3880000000000003;9817499999.0;9817723389.0;-223390.0;0.0;2.3017695898786186;-15.705169589882452;0.0;333.3333333333333;-333.3333333333333
0.3920000000000003;9817499999.0;9817717896.0;-217897.0;0.0;-0.825295057989657;-12.248524942020321;0.0;-83.33333333333333;83.33333333333333
0.3960000000000003;9817499999.0;9817717896.0;-217897.0;0.0;-0.20403985717892648;-12.86978014283105;0.0;0.0;0.0
0.4000000000000003;9817499999.0;9817712402.0;-212403.0;0.0;-2.273211692288518;-10.470968307718593;0.0;0.0;0.0
0.4040000000000003;9817499999.0;9817706909.0;-206910.0;0.0;0.07820648685097695;-12.492806486796106;0.0;-166.66666666666666;166.66666666666666
0.4080000000000003;9817499999.0;9817701416.0;-201417.0;0.0;0.7492113200128079;-12.834231320100338;0.0;-83.33333333333333;83.33333333333333
0.4120000000000003;9817499999.0;9817684937.0;-184938.0;-8.515934755133369e-10;-4.168972603060305;-6.92730739690941;-2.1289836887833425e-07;-83.33333333333333;83.33333312043496
0.4160000000000003;9817499999.0;9817690430.0;-190431.0;-5.67728983675558e-10;1.6516691289097072;-13.077529129210921;7.096612295944474e-08;83.33333333333333;-83.3333332623672
0.4200000000000003;9817499999.0;9817684937.0;-184938.0;0.0;-0.19382327272742986;-10.902456727976341;1.419322459188895e-07;83.33333333333333;-83.33333319140108
0.4240000000000003;9817499999.0;9817679443.0;-179444.0;5.67728983675558e-10;-1.5930048286393286;-9.173635171739942;1.419322459188895e-07;83.33333333333333;-83.33333319140108
0.4280000000000003;9817558068.0;9817668457.0;-168458.0;14.51717995995766;-2.356655052244663;-7.750824947580835;3629.294989847483;-83.33333333333333;3712.628323180816
0.43200000000000033;9817581132.0;9817668457.0;-145435.0;5.765862800159883;-0.2626495907381177;-2.7076153858024465;-2187.8292899494445;-83.33333333333333;-2104.495956616111
0.43600000000000033;9817605312.0;9817684937.0;-118065.0;6.045151029068584;3.316239294357598;0.5622185498148067;69.82205722717526;83.33333333333333;-13.511276106158057
0.44000000000000034;9817631391.0;9817690430.0;-99846.0;6.519638116860349;2.78638619633764;-2.849272728243022;118.62177194794144;333.3333333333333;-214.7115613853919
0.44400000000000034;9817659529.0;9817690430.0;-74920.0;7.034562453755312;0.4617835399135947;1.2746577511066757;128.73108422374057;83.33333333333333;45.39775089040725
0.44800000000000034;9817688579.0;9817695923.0;-53529.0;7.26252959517392;2.534480464667082;0.9747969083880235;56.991785354651995;-83.33333333333333;140.3251186879853
0.45200000000000035;9817717642.0;9817712402.0;-41520.0;7.26576689342348;6.822178336195648;-2.1914476077431946;0.8093245623901346;0.0;0.8093245623901346
0.45600000000000035;9817746488.0;9817706909.0;-6977.0;7.211324718400413;-1.2212652718052268;8.065122660231216;-13.610543755766757;166.66666666666666;-180.27721042243343
0.46000000000000035;9817774477.0;9817728882.0;27.0;6.9973102610483275;7.163688164643943;0.08209428853648149;-53.50361433802142;0.0;-53.50361433802142
0.46400000000000036;9817801226.0;9817728882.0;28534.0;6.687245960851814;6.668710777997971;2.1701195490903213;-77.51607504912839;-83.33333333333333;5.817258284204943
0.46800000000000036;9817827165.0;9817712402.0;72517.0;6.4847215452957965;-2.6473355685397983;13.87398417023868;-50.63110388900438;-166.66666666666666;116.03556277766228
0.47200000000000036;9817852856.0;9817712402.0;98952.0;6.422704964644599;-2.1888490803539753;14.734734057870211;-15.504145162799299;0.0;-15.504145162799299
0.47600000000000037;9817878743.0;9817712402.0;124797.0;6.471827524484053;-2.3805537746921184;16.329693381257062;12.280639959863393;-83.33333333333333;95.61397329319672
0.48000000000000037;9817904651.0;9817734375.0;128594.0;6.476945448836655;3.116690847299993;11.041493823069953;1.2794810881504581;166.66666666666666;-165.3871855785162
0.4840000000000004;9817929198.0;9817734375.0;154488.0;6.136806936850229;1.87748102196306;13.865367851991369;-85.03462799660633;0.0;-85.03462799660633
0.4880000000000004;9817950683.0;9817745361.0;168871.0;5.371396243707977;0.34992531932890414;16.12439053628694;-191.35267328556304;250.0;-441.35267328556307
0.4920000000000004;9817967554.0;9817756348.0;181225.0;4.217727203373999;-1.3121874523758887;18.021014008044588;-288.41726008349445;83.33333333333333;-371.75059341682777
0.4960000000000004;9817977884.0;9817800293.0;156953.0;2.5825194699513574;10.78679221187532;3.5488571117122714;-408.8019333556605;416.6666666666667;-825.4686000223272
0.5000000000000003;9817979997.0;9817761841.0;209710.0;0.5281130675253174;-13.539997212707997;29.69874987934739;-513.60160060651;-83.33333333333333;-430.26826727317666
