Zeit[sec];Sollposition[°];Istposition[°];Positionsschleppfehler[°];Sollgeschwindigkeit[°/s];Istgeschwindigkeit[°/s];Geschwindigkeitsdifferenz[°/s];Sollbeschleunigung[°/s*s];Istbeschleunigung[°/s*s];Beschleunigungsdifferenz[°/s*s]
0.0;0.0;0.0;0.0;-0.0;-0.29886607374959323;0.29886607374959323;0.0;0.0;0.0
0.004;0.0;0.0;0.0;-0.0;0.7877115254589956;-0.7877115254589956;0.0;0.0;0.0
0.008;0.0;0.0;0.0;-0.0;0.24479752689483383;-0.24479752689483383;0.0;0.0;0.0
0.012;0.0;0.0;0.0;-0.0;-0.10969218639201284;0.10969218639201284;0.0;0.0;0.0
0.016;0.0;-5493.0;5493.0;-0.0;-2.5781688400990963;3.1054968400990965;0.0;0.0;0.0
0.02;0.0;0.0;0.0;-0.0;0.08598907632648803;-0.08598907632648803;0.0;0.0;0.0
0.024;0.0;0.0;0.0;-0.0;0.098008929888914;-0.098008929888914;0.0;0.0;0.0
0.028;0.0;5493.0;-5493.0;-0.0;2.2400155215142163;-2.767343521514216;0.0;0.0;0.0
0.032;0.0;0.0;0.0;-0.0;-0.3039229898587274;0.3039229898587274;0.0;0.0;0.0
0.036000000000000004;-3057.0;0.0;0.0;-0.7642736663020894;-0.12464776888834322;0.12464776888834322;-191.06841657552235;0.0;-191.06841657552235
0.04000000000000001;-175489.0;0.0;-1212.0;-43.1080423335842;0.12878117325072333;-0.5481557401634657;-10585.942166820529;0.0;-10585.942166820529
0.04400000000000001;-755666.0;0.0;-71405.0;-145.04441952206147;0.10277811608502443;-24.506096271565553;-25484.094297119318;0.0;-25484.094297119318
0.048000000000000015;-2051688.0;-71411.0;-333099.0;-324.00524629314117;-16.79244899373727;-98.46117011964975;-44740.20669276993;-666.6666666666666;-44073.540026103256
0.05200000000000002;-4393446.0;-455933.0;-810186.0;-585.439667090096;-113.45761469748989;-179.72254891629768;-65358.60519923871;-3666.6666666666665;-61691.93853257204
0.05600000000000002;-8359731.0;-1928101.0;-1044464.0;-991.5711063636842;-379.5164264243722;-147.36342820757477;-101532.85981839705;-18916.666666666668;-82616.19315173037
0.060000000000000026;-14607091.0;-4411011.0;-1541284.0;-1561.839886559372;-634.7911766164478;-258.10468203253004;-142567.19504892195;-40833.333333333336;-101733.86171558862
0.06400000000000003;-23835995.0;-8646240.0;-2167231.0;-2307.226012893091;-1108.4673513188134;-314.88091554077687;-186346.53158342978;-64333.333333333336;-122013.19825009645
0.06800000000000003;-36842039.0;-15743408.0;-2486193.0;-3251.5107250312276;-1824.5316688396963;-268.175279518812;-236071.17803453412;-98750.0;-137321.17803453412
0.07200000000000004;-54439842.0;-25977173.0;-2961440.0;-4399.450570537612;-2616.5091592284775;-345.0417307447706;-286984.9613765962;-139333.33333333334;-147651.62804326284
0.07600000000000004;-77364838.0;-40336304.0;-3406782.0;-5731.248693742388;-3644.799741550367;-383.36934942887183;-332949.53080119396;-188166.66666666666;-144782.86413452734
0.08000000000000004;-106259296.0;-59551392.0;-3874741.0;-7223.614122428355;-4872.422313386617;-420.3143296237495;-373091.3571714916;-232250.0;-140841.3571714916
0.08400000000000005;-141655818.0;-84265137.0;-4421576.0;-8849.13007696995;-6242.346304145556;-497.2697552328427;-406378.98863539885;-277833.3333333333;-128545.65530206554
0.08800000000000005;-183878364.0;-115317993.0;-4806167.0;-10555.636013640935;-7858.150731806831;-462.6027712267678;-426626.4841677462;-324166.6666666667;-102459.8175010795
0.09200000000000005;-233019141.0;-153440552.0;-4748444.0;-12285.193783341445;-9601.735954289183;-370.323178869412;-432389.44242512755;-372833.3333333333;-59556.10909179421
0.09600000000000006;-288994839.0;-197770386.0;-5344131.0;-13993.923711092264;-11130.632885650957;-613.7832771133981;-427182.4819377048;-404666.6666666667;-22515.815271038093
0.10000000000000006;-351547374.0;-249060059.0;-5864637.0;-15638.133005570277;-12939.109747109855;-576.4397781228326;-411052.3236195031;-413833.3333333333;2781.009713830201
0.10400000000000006;-420241973.0;-307869873.0;-5598086.0;-17173.649122147894;-14811.0020663073;-362.2291058548508;-383879.0291444043;-426500.0;42620.97085559572
0.10800000000000007;-494509626.0;-373178101.0;-5239089.0;-18566.91218154575;-16319.061371477255;-421.19828704189786;-348315.76484946435;-437666.6666666667;89350.90181720234
0.11200000000000007;-573686972.0;-442968750.0;-6316680.0;-19794.335716665304;-17569.902554721633;-753.5577159966342;-306855.8837798883;-411500.0;104644.11622011175
0.11600000000000008;-657042987.0;-520241089.0;-5225956.0;-20839.00271624251;-19371.918442022812;-175.17611796644997;-261166.74989430158;-384083.3333333333;122916.58343903173
0.12000000000000008;-743831038.0;-600474243.0;-5798157.0;-21697.011637028656;-19995.22250284317;-762.7384934565416;-214502.2301965364;-352333.3333333333;137831.1031367969
0.12400000000000008;-833364183.0;-684997559.0;-5967120.0;-22383.28531379945;-21252.345791766344;-493.5664794778386;-171568.41919269846;-300916.6666666667;129348.24747396822
0.12800000000000009;-925035403.0;-773794556.0;-5026451.0;-22917.803870011172;-22116.949159193155;-329.6711676286759;-133629.63905293055;-283833.3333333333;150203.69428040276
0.1320000000000001;-1018308973.0;-863843994.0;-5341787.0;-23318.39136525981;-22585.921102415363;-518.0828842447663;-100146.87381215935;-205916.66666666666;105769.79285450731
0.1360000000000001;-1112753254.0;-956107178.0;-5372602.0;-23611.06919261733;-23107.010272873136;-482.2581271591771;-73169.45683938047;-193833.33333333334;120663.87649395288
0.1400000000000001;-1208049348.0;-1050600586.0;-4607544.0;-23824.02228551919;-23569.215453382592;-305.195128978452;-53238.27322546458;-132833.33333333334;79595.06010786876
0.1440000000000001;-1303952732.0;-1145132446.0;-4850836.0;-23975.844958087277;-23669.857552416193;-489.6095609999611;-37955.66814202175;-108333.33333333333;70377.66519131158
0.1480000000000001;-1400269214.0;-1241531982.0;-3983184.0;-24079.11918389231;-24048.630547770455;-216.72494716399888;-25818.5564512587;-90916.66666666667;65098.11021540797
0.1520000000000001;-1496849452.0;-1337574463.0;-4004315.0;-24145.058477904815;-24050.457475247393;-349.8587537397034;-16484.82350312588;-52916.666666666664;36431.84316354078
0.1560000000000001;-1593586843.0;-1434182739.0;-3814676.0;-24184.346458828248;-24139.612724904116;-331.2541323458536;-9821.995230858192;-40833.333333333336;31011.338102475143
0.16000000000000011;-1690417369.0;-1531499634.0;-3138782.0;-24207.6305042203;-24299.90110606943;-161.67115134597407;-5821.011348012689;-28833.333333333332;23012.321985320643
0.16400000000000012;-1787309056.0;-1628102417.0;-3309396.0;-24222.920545405486;-24145.039486509388;-366.010545490346;-3822.5102962969686;-18083.333333333332;14260.823037036364
0.16800000000000012;-1884243627.0;-1725507202.0;-2758841.0;-24233.64161539083;-24311.288197984737;-167.11687470514153;-2680.2674963355457;-11750.0;9069.732503664454
0.17200000000000013;-1981206584.0;-1822434082.0;-2740292.0;-24240.73816387749;-24272.240615512677;-217.90910854018512;-1774.1371216652624;-2416.6666666666665;642.5295450014041
0.17600000000000013;-2078185889.0;-1919619141.0;-2500807.0;-24244.82494442707;-24207.01378217635;-269.4561570364094;-1021.6951373949996;-5916.666666666667;4894.971529271667
0.18000000000000013;-2175172536.0;-2016551514.0;-2537707.0;-24246.66058986746;-24266.99462314117;-218.94217602950448;-458.91136009777256;3416.6666666666665;-3875.578026764439
0.18400000000000014;-2272160844.0;-2113621216.0;-2450125.0;-24247.075890816217;-24225.51711307768;-255.22369010475813;-103.82523718908487;-2250.0;2146.174762810915
0.18800000000000014;-2369148055.0;-2211410522.0;-1648081.0;-24246.801757895835;-24461.479901538012;56.449631068440794;68.5332300954542;1583.3333333333333;-1514.800103237879
0.19200000000000014;-2466133396.0;-2307903442.0;-2143025.0;-24246.333868641228;-24152.633150766593;-300.06201722599144;116.97231365178595;-10083.333333333334;10200.30564698512
0.19600000000000015;-2563117049.0;-2405615845.0;-1417098.0;-24245.912275186456;-24454.930228978104;72.27096761340727;105.39836369298428;5583.333333333333;-5477.934969640349
0.20000000000000015;-2660099399.0;-2502328491.0;-1689135.0;-24245.58630646769;-24248.446751332718;-159.87966362967563;81.49217969184974;-1083.3333333333333;1164.825513025183
0.20400000000000015;-2757067495.0;-2599497070.0;-1503702.0;-24242.02291438203;-24246.312554321583;-143.82834163526786;890.8480214149677;4333.333333333333;-3442.4853119183654
0.20800000000000016;-2853970969.0;-2696583252.0;-1394226.0;-24225.867372446526;-24364.860658243004;-13.160424913621682;4038.8854838756743;1500.0;2538.8854838756743
0.21200000000000016;-2950725841.0;-2793389282.0;-1530754.0;-24188.71663713836;-24157.465095187203;-225.1256624982525;9287.683827041292;0.0;9287.683827041292
0.21600000000000016;-3047218493.0;-2890684204.0;-1080766.0;-24123.162074317515;-24395.708936517352;80.72305276175393;16388.6407052114;7666.666666666667;8721.974038544733
0.22000000000000017;-3143274470.0;-2987286987.0;-1129760.0;-24013.99299024999;-24121.24610191368;-150.15381544595584;27292.271016881386;-9250.0;36542.27101688139
0.22400000000000017;-3238538324.0;-3083790894.0;-946906.0;-23815.96236171337;-24121.84493422836;-49.320388789888966;49507.657134155124;18583.333333333332;30924.323800821792
0.22800000000000017;-3332872303.0;-3179575195.0;-907077.0;-23583.493589370522;-23946.978086142037;-76.21790872368729;58117.19308571173;10250.0;47867.19308571173
0.23200000000000018;-3426019236.0;-3275090332.0;-291754.0;-23286.732085068354;-23805.852015177767;52.89116965966605;74190.37607554218;32500.0;41690.37607554219
0.23600000000000018;-3517668254.0;-3368984985.0;-265883.0;-22912.253441840323;-23515.371962771766;22.652783245579485;93619.66080700768;38333.333333333336;55286.32747367434
0.24000000000000019;-3607497853.0;-3461676636.0;-134221.0;-22457.398757466344;-23102.923156566776;-49.9580506297425;113713.67109349466;56916.666666666664;56797.004426828
0.2440000000000002;-3695203080.0;-3552912598.0;165318.0;-21926.3057773578;-22820.95107846156;102.71672907094035;132773.245027136;82833.33333333333;49939.91169380267
0.2480000000000002;-3780484241.0;-3642242432.0;497172.0;-21320.289184263762;-22256.99898957187;55.233648224508215;151504.1482735096;84333.33333333333;67170.81494017626
0.25200000000000017;-3862964849.0;-3729006958.0;505128.0;-20620.151116040895;-21685.172735107175;44.523482971661;175034.5170557166;117000.0;58034.517055716606
0.25600000000000017;-3942545714.0;-3813338013.0;651194.0;-19895.215225978038;-21080.137307854082;96.4056735082413;181233.9725157144;129666.66666666667;51567.30584904774
0.2600000000000002;-4018943210.0;-3895158691.0;1124557.0;-19099.373193831012;-20431.04284730502;202.17258505730206;198960.50803675642;155083.33333333334;43877.174703423094
0.2640000000000002;-4091936732.0;-3973677979.0;1308146.0;-18248.379539377536;-19584.147685294964;125.80573480060048;212748.41361336893;159083.33333333334;53665.080280035596
0.2680000000000002;-4161328115.0;-4049060669.0;1624310.0;-17347.84498048451;-18794.522869315555;183.82598579244222;225133.63972325623;180583.33333333334;44550.306389922895
0.2720000000000002;-4226947329.0;-4120642090.0;1620455.0;-16404.802629795882;-17825.665414048246;84.91114547524558;235760.58767215727;198416.66666666666;37343.921005490614
0.2760000000000002;-4288642883.0;-4189081421.0;2142903.0;-15423.887799206943;-17100.605334113094;327.1040289588491;245228.70764723484;217666.66666666666;27562.040980568185
0.2800000000000002;-4346283701.0;-4254021606.0;2997441.0;-14410.203817051546;-16157.735038736548;424.0785097014159;253420.99553884918;209666.66666666666;43754.32887218252
0.2840000000000002;-4399761457.0;-4314281616.0;3146547.0;-13369.438317146685;-15035.017812152393;309.3608372223516;260191.37497621524;229833.33333333334;30358.041642881886
0.2880000000000002;-4448985737.0;-4370570068.0;3421012.0;-12306.069558783709;-14018.345784693849;343.26682381072715;265842.18959074403;240666.66666666666;25175.5229240774
0.2920000000000002;-4493880811.0;-4422304688.0;3339919.0;-11223.767939672176;-12881.884708630401;248.58947768679536;270575.40477788326;267750.0;2825.40477788325
0.2960000000000002;-4534380891.0;-4470018311.0;3520802.0;-10125.01940881626;-11914.514146165726;369.326584078397;274687.1327139788;269416.6666666667;5270.46604731214
0.3000000000000002;-4570470974.0;-4513656006.0;3980603.0;-9022.520250507592;-10838.51674805922;426.1817098762458;275624.78957716713;260500.0;15124.789577167121
0.3040000000000002;-4602250170.0;-4552212524.0;3759784.0;-7944.798681632367;-9602.33943301357;268.94499824436207;269430.3922188062;269666.6666666667;-236.27444786046726
0.3080000000000002;-4629880220.0;-4586616211.0;3756748.0;-6907.512147306316;-8563.82744587582;322.79481002194916;259321.63358151275;275166.6666666667;-15845.033085153944
0.3120000000000002;-4653536543.0;-4616872559.0;3853712.0;-5914.080645006592;-7513.97645898759;344.08725779586894;248357.8755749311;279666.6666666667;-31308.7910917356
0.3160000000000002;-4673474125.0;-4643096924.0;3999236.0;-4984.395099122951;-6512.538238839015;376.75496504020794;232421.3864709102;268083.3333333333;-35661.94686242312
0.32000000000000023;-4690017450.0;-4665552979.0;4250108.0;-4135.831174938137;-5578.224225779552;434.93885367042003;212140.98104620347;252083.33333333334;-39942.35228712986
0.32400000000000023;-4703482494.0;-4684279175.0;4362702.0;-3366.2607024535223;-4664.484314775102;429.9035685347462;192392.61812115376;246333.33333333334;-53940.71521217958
0.32800000000000024;-4714181104.0;-4699769897.0;4510701.0;-2674.6525086237493;-3843.284816945743;440.6315515658375;172902.04845744325;230833.33333333334;-57931.2848758901
0.33200000000000024;-4722467763.0;-4712184448.0;4539019.0;-2071.6646948288003;-3086.266578379106;425.4543404139213;150746.95344873727;216416.66666666666;-65669.7132179294
0.33600000000000024;-4728716915.0;-4721852417.0;4448469.0;-1562.2877118513607;-2389.339265708808;376.7626358094419;127344.24574435991;197416.66666666666;-70072.42092230674
0.34000000000000025;-4733258503.0;-4729317627.0;4420728.0;-1135.3970908278002;-1864.763736873094;415.9158130580022;106722.65525589012;179583.33333333334;-72860.67807744323
0.34400000000000025;-4736392414.0;-4735003052.0;4522085.0;-783.4777714908388;-1410.4723293990903;448.57560785792793;87979.82983424034;152500.0;-64520.17016575965
0.34800000000000025;-4738312027.0;-4739122925.0;4648486.0;-479.9030646112996;-1024.6128070825227;472.49957139985895;75893.6767198848;128250.0;-52356.323280115204
0.35200000000000026;-4739354004.0;-4741847534.0;4712386.0;-260.49429049190445;-670.4419625902027;457.6538477605279;54852.19352984879;105000.0;-50147.80647015121
0.35600000000000026;-4739894848.0;-4743330688.0;4616781.0;-135.21095705417153;-363.62876561460644;412.15006963140587;31320.83335943323;93333.33333333333;-62012.4999739001
0.36000000000000026;-4740115494.0;-4744028320.0;4465985.0;-55.16157355089402;-172.38518855934217;389.01274393758035;20012.345875819377;79416.66666666667;-59404.32079084729
0.36400000000000027;-4740204921.0;-4744324951.0;4345789.0;-22.356737426954545;-74.0284919000268;387.01752660152107;8201.209030984868;61250.0;-53048.79096901513
0.36800000000000027;-4740157361.0;-4744330444.0;4180786.0;11.890053945381304;-2.4383048958852886;361.16975293616156;8561.697843083963;40000.0;-31438.302156916037
0.3720000000000003;-4740084754.0;-4744259033.0;4073494.0;18.151651441879814;17.028892047535628;365.0558963618633;1565.3993741246275;22666.666666666668;-21101.26729254204
0.3760000000000003;-4739987160.0;-4744149170.0;4020319.0;24.398680399722995;27.492774238474667;372.62986448361323;1561.7572394607953;11416.666666666666;-9854.90942720587
0.3800000000000003;-4739995521.0;-4744000854.0;3954370.0;-2.0903032628364486;36.52428350062296;363.6870482653976;-6622.245915639861;5583.333333333333;-12205.579248973194
0.3840000000000003;-4740001020.0;-4743814087.0;3823040.0;-1.3748155809764626;49.51552854316309;331.35592003945806;178.8719204649965;2333.3333333333335;-2154.461412868337
0.3880000000000003;-4740002995.0;-4743660278.0;3662626.0;-0.49376881449178295;38.834294046241794;311.1263872659262;220.26169162116992;1833.3333333333333;-1613.0716417121632
0.3920000000000003;-4740002686.0;-4743605347.0;3603576.0;0.07735857854790944;16.75468160525337;328.1589277797139;142.7818482599231;-583.3333333333334;726.1151815932565
0.3960000000000003;-4739999654.0;-4743517456.0;3514596.0;0.7579736439550804;25.74073762819916;311.38799026140015;170.15376635179274;-2083.3333333333335;2253.4870996851264
0.4000000000000003;-4739777637.0;-4743435059.0;3433574.0;55.50425805102975;20.30114494588971;309.665824421868;13686.571101768668;-1750.0;15436.571101768668
0.4040000000000003;-4739102362.0;-4743380127.0;3468483.0;168.81863867849384;16.24792505141348;339.1864749703767;28328.595156866024;-833.3333333333334;29161.928490199356
0.4080000000000003;-4737624333.0;-4743056030.0;3544829.0;369.50723936161614;92.96826612603292;347.44617829646154;50172.15017078057;2000.0;48172.15017078057
0.4120000000000003;-4735110631.0;-4741984863.0;3464561.0;628.4254012438105;279.39319249404593;300.929245146888;64729.540470548585;12166.666666666666;52562.87380388192
0.4160000000000003;-4731327709.0;-4740051270.0;3414921.0;945.7306240391412;486.57437595021725;312.2463752318316;79326.30569883267;30583.333333333332;48742.972365499336
0.4200000000000003;-4726027639.0;-4737266235.0;3640746.0;1325.0174175637517;714.1250358096473;388.10144577366634;94821.69838115263;45500.0;49321.69838115263
0.4240000000000003;-4718874205.0;-4733025513.0;3777034.0;1788.3583973991815;1090.4973824398555;366.3505825857901;115835.24495885745;58166.666666666664;57668.578292190796
0.4280000000000003;-4709395290.0;-4726895142.0;3672674.0;2369.7285260104295;1543.6695433323011;315.4096534775988;145342.532152812;77166.66666666667;68175.86548614533
0.43200000000000033;-4697122396.0;-4719166260.0;4008383.0;3068.223493878407;1959.5174902686067;441.4349586630615;174623.74196699442;95666.66666666667;78957.07530032776
0.43600000000000033;-4681717645.0;-4708729248.0;4144429.0;3851.187606766753;2652.462772353001;388.66681283579464;195741.02822208646;115833.33333333333;79907.69488875315
0.44000000000000034;-4662913666.0;-4695391846.0;4305283.0;4700.994460651559;3372.2992926948555;415.5716621771112;212451.7134712015;139750.0;72701.71347120151
0.44400000000000034;-4640442445.0;-4678654175.0;4301753.0;5617.80484160865;4216.1643785781935;380.33897517281366;229202.5952392728;169416.66666666666;59785.928572606135
0.44800000000000034;-4614092413.0;-4658565674.0;4451317.0;6587.507669613308;5071.325893397797;415.51665310662065;242425.7070011645;195916.66666666666;46509.040334497826
0.45200000000000035;-4583710890.0;-4634884644.0;4757908.0;7595.380544664181;5957.783806425188;495.88028705479337;251968.21876271814;208416.66666666666;43551.5520960515
0.45600000000000035;-4549142643.0;-4607182617.0;4981609.0;8642.06131016532;6977.7276441927;481.93848385668207;261670.19137528472;221166.66666666666;40503.524708618075
0.46000000000000035;-4510235092.0;-4575228882.0;5045746.0;9726.887353672111;8062.402062137086;426.4571625340968;271206.51087669784;237583.33333333334;33623.17754336451
0.46400000000000036;-4466880973.0;-4539001465.0;5082511.0;10838.529154418511;9107.594246105384;446.3718007931093;277910.4501866;255583.33333333334;22327.11685326663
0.46800000000000036;-4419038798.0;-4498632202.0;5358368.0;11960.54318306962;10164.395854870458;511.28702879580305;280503.5071627772;263666.6666666667;16836.840496110482
0.47200000000000036;-4366725090.0;-4453786011.0;5619686.0;13078.426361840016;11246.903393304874;569.463121828383;279470.79469259916;268416.6666666667;11054.12802593247
0.47600000000000037;-4309991232.0;-4404732056.0;6154502.0;14183.463781679784;12323.734941200453;664.2893463778782;276259.3549599419;266000.0;10259.354959941902
0.48000000000000037;-4248902355.0;-4350476074.0;5938548.0;15272.218503042473;13587.491871172459;492.615072673736;272188.6803406724;279333.3333333333;-7144.652992660951
0.4840000000000004;-4183526440.0;-4291929932.0;5827061.0;16343.977943880867;14671.207436282624;496.85360799304;267939.86020959844;287250.0;-19310.139790401536
