Zeit[sec];Sollposition[°];Istposition[°];Positionsschleppfehler[°];Sollgeschwindigkeit[°/s];Istgeschwindigkeit[°/s];Geschwindigkeitsdifferenz[°/s];Sollbeschleunigung[°/s*s];Istbeschleunigung[°/s*s];Beschleunigungsdifferenz[°/s*s]
0.0;9817499999.0;9817476196.0;23803.0;0.0;-3.8367342802435163;5.264914280307718;0.0;-166.66666666666666;166.66666666666666
0.004;9817499999.0;9817487183.0;12816.0;0.0;-3.499239892885089;4.26819989288444;0.0;0.0;0.0
0.008;9817499999.0;9817503662.0;-3663.0;0.0;4.132426378041506;-4.352206378091842;0.0;83.33333333333333;-83.33333333333333
0.012;9817499999.0;9817492676.0;7323.0;0.0;0.9148654692173004;-0.4754854692118024;0.0;0.0;0.0
0.016;9817499999.0;9817487183.0;12816.0;0.0;-3.3034526565372944;4.072412656536645;0.0;0.0;0.0
0.02;9817499999.0;9817503662.0;-3663.0;0.0;2.6778089733794332;-2.8975889734297695;0.0;0.0;0.0
0.024;9817499999.0;9817503662.0;-3663.0;0.0;4.415312598280609;-4.635092598330945;0.0;0.0;0.0
0.028;9817499999.0;9817492676.0;7323.0;0.0;-0.34918757432699205;0.78856757433249;0.0;-83.33333333333333;83.33333333333333
0.032;9817499999.0;9817492676.0;7323.0;0.0;-0.5372410655766726;0.9766210655821705;0.0;0.0;0.0
0.036000000000000004;9817497985.0;9817503662.0;-3663.0;-0.5036708578311336;3.12491572586447;-3.3446957259148062;-125.9177144577834;0.0;-125.9177144577834
0.04000000000000001;9817477907.0;9817498169.0;1031.0;-5.019419004125343;2.6702621103972195;-2.808099735640394;-1128.9370365735524;-83.33333333333333;-1045.603703240219
0.04400000000000001;9817379221.0;9817487183.0;2852.0;-24.67146223618778;-1.0787919895350933;-1.0412312533440828;-4913.010808015609;0.0;-4913.010808015609
0.048000000000000015;9817053136.0;9817459717.0;-20821.0;-81.52141715377279;-9.098444741517305;-4.9355028792407225;-14212.488729396253;-166.66666666666666;-14045.822062729585
0.05200000000000002;9816226531.0;9817355347.0;-104836.0;-206.6510791740451;-35.96441247394681;-17.42217991579696;-31282.41550506808;-916.6666666666666;-30365.74883840141
0.05600000000000002;9814499567.0;9816948853.0;-221543.0;-431.7411089596769;-113.12546938885004;-30.967378400371615;-56272.50744640796;-5083.333333333333;-51189.17411307462
0.060000000000000026;9811480017.0;9815817261.0;-270602.0;-754.8873992637481;-291.34225130707773;-20.05644603190956;-80786.57257601779;-15583.333333333334;-65203.23924268445
0.06400000000000003;9806509648.0;9813795776.0;-483295.0;-1242.5922401081846;-533.1809411290735;-54.36143588212576;-121926.21021110912;-31000.0;-90926.21021110912
0.06800000000000003;9799091737.0;9810313110.0;-786075.0;-1854.4777144557104;-896.4717213040889;-97.05409167168;-152971.36858688146;-52166.666666666664;-100804.7019202148
0.07200000000000004;9788681636.0;9804677124.0;-1079439.0;-2602.525051541736;-1454.751499632284;-92.35246479235593;-187011.8342715064;-78083.33333333333;-108928.50093817309
0.07600000000000004;9774742482.0;9796113281.0;-1105523.0;-3484.788342054304;-2178.1316736858935;-35.68123523353597;-220565.82262814196;-116250.0;-104315.82262814198
0.08000000000000004;9756783597.0;9784594116.0;-1378141.0;-4489.721004644391;-2930.462445212707;-100.17158578758881;-251233.16564752167;-152416.66666666666;-98816.49898085502
0.08400000000000005;9734395434.0;9769174805.0;-1471067.0;-5597.040404433359;-3874.146824705146;-92.17612452542244;-276829.8499472421;-188000.0;-88829.84994724211
0.08800000000000005;9707281580.0;9749652100.0;-1639833.0;-6778.463167439465;-4930.991065861508;-90.26648161374942;-295355.6907515265;-215166.66666666666;-80189.02408485982
0.09200000000000005;9675302756.0;9725619507.0;-1843113.0;-7994.705633082817;-6070.601067387522;-98.95358323902929;-304060.6164108381;-244916.66666666666;-59143.949744171405
0.09600000000000006;9638500301.0;9696752930.0;-1991585.0;-9200.613493627838;-7263.3490616966565;-109.90794057988933;-301476.9651362551;-270666.6666666667;-30810.298469588415
0.10000000000000006;9597080273.0;9663019409.0;-2120876.0;-10355.00647985358;-8492.944857880502;-100.01053890101139;-288598.2465564357;-289916.6666666667;1318.420110230989
0.10400000000000006;9551381975.0;9624440918.0;-2147372.0;-11424.573927123247;-9698.34652751051;-81.7422013950436;-267391.8618174166;-300000.0;32608.13818258339
0.10800000000000007;9501842191.0;9581231689.0;-2027383.0;-12384.945345856824;-10846.751580093563;-47.2006392073672;-240092.8546833943;-301916.6666666667;61823.811983272375
0.11200000000000007;9448956974.0;9533952026.0;-1944039.0;-13221.303520282974;-11856.4315825148;-59.28994957155555;-209089.5436065375;-291416.6666666667;82327.12306012918
0.11600000000000008;9393249482.0;9483107300.0;-1943000.0;-13926.872407688046;-12750.81385318037;-76.68726445827997;-176392.221851268;-269333.3333333333;92941.11148206532
0.12000000000000008;9335248247.0;9429153442.0;-1973745.0;-14500.30808242905;-13534.502046668798;-80.07267677816162;-143358.91868525094;-238250.0;94891.08131474904
0.12400000000000008;9275464336.0;9372343140.0;-1763831.0;-14945.976953353049;-14193.373298289187;-62.55306180171465;-111417.2177309997;-212916.66666666666;101499.44893566695
0.12800000000000009;9214358868.0;9313687134.0;-1802424.0;-15276.366385009442;-14696.854852710165;-84.93943880743973;-82597.35791409822;-178500.0;95902.64208590178
0.1320000000000001;9152320730.0;9252982178.0;-1394910.0;-15509.53378517379;-15199.870663115293;41.81620348580327;-58291.850041086946;-151750.0;93458.14995891305
0.1360000000000001;9089660466.0;9191239014.0;-1119259.0;-15665.065189446199;-15419.122573405824;-14.910706952032342;-38882.851068102354;-121083.33333333333;82200.48226523097
0.1400000000000001;9026605125.0;9129221191.0;-1380773.0;-15763.83455198869;-15534.176106003382;-118.50361555082054;-24692.340635622713;-85750.0;61057.65936437729
0.1440000000000001;8963301369.0;9066154175.0;-1127017.0;-15825.938153727755;-15754.201372388103;-16.734029213101167;-15525.9004347663;-59666.666666666664;44140.766231900365
0.1480000000000001;8899834658.0;9003153076.0;-1277437.0;-15866.677097780606;-15716.171323576458;-148.35382939935516;-10184.736013212841;-36833.333333333336;26648.597320120494
0.1520000000000001;8836254100.0;8939602661.0;-1093932.0;-15895.138612357156;-15917.189986954652;9.827446747365684;-7115.378644137309;-26416.666666666668;19301.28802252936
0.1560000000000001;8772593229.0;8875920410.0;-922575.0;-15915.217224242811;-15886.536876282818;-46.54056256597687;-5019.6529714139615;-25000.0;19980.34702858604
0.16000000000000011;8708881013.0;8812776489.0;-1390388.0;-15928.053103624747;-15821.55958474368;-164.79639681095068;-3208.969845483807;-2833.3333333333335;-375.63651215047366
0.16400000000000012;8645142381.0;8748638306.0;-932963.0;-15934.65733942182;-16024.498862088718;48.33228034806234;-1651.0589492681902;-11583.333333333334;9932.274384065144
0.16800000000000012;8581395177.0;8684857178.0;-874224.0;-15936.800088649337;-15939.202981423825;-43.84682827255165;-535.6873068794812;-4833.333333333333;4297.646026453852
0.17200000000000013;8517649429.0;8620839844.0;-598766.0;-15936.436353720648;-15993.313753176257;21.919583860235434;90.93373217228873;-12250.0;12340.933732172289
0.17600000000000013;8453908933.0;8556959839.0;-465337.0;-15935.12319894401;-15938.325652524003;-26.23788573820093;328.28869415970985;-7416.666666666667;7744.955360826377
0.18000000000000013;8390173747.0;8493189697.0;-438869.0;-15933.795829315713;-15931.640126982213;-30.60985264690862;331.84240707396384;5333.333333333333;-5001.490926259369
0.18400000000000014;8326442436.0;8429458008.0;-445602.0;-15932.82697475715;-15909.561021105177;-51.779710787644945;242.213639640795;2083.3333333333335;-1841.1196936925385
0.18800000000000014;8262713502.0;8365968018.0;-689293.0;-15932.232604956649;-15883.185924194913;-91.5911269830849;148.59245012530664;9500.0;-9351.407549874693
0.19200000000000014;8198985976.0;8301967163.0;-418829.0;-15931.880916238639;-16006.814435663786;49.08770236331111;87.92217950258419;1500.0;-1412.0778204974158
0.19600000000000015;8135259451.0;8238361816.0;-541872.0;-15931.63040957444;-15907.376488042337;-57.232480468237554;62.626666049709456;-1833.3333333333333;1895.9599993830427
0.20000000000000015;8071533893.0;8174575195.0;-482388.0;-15931.38878961858;-15988.05578232569;27.328847389204384;60.404988964819495;-833.3333333333334;893.7383222981529
0.20400000000000015;8007809319.0;8110640259.0;-273599.0;-15931.142758437467;-15951.974612965643;4.022594115875108;61.50779527843042;-6500.0;6561.50779527843
0.20800000000000016;7944089491.0;8047260132.0;-618646.0;-15929.956074804244;-15876.150458368156;-92.26095947326394;296.67090830571397;6583.333333333333;-6286.662425027619
0.21200000000000016;7880391904.0;7983347168.0;-428380.0;-15924.396073994441;-15979.524369939358;23.14787143149988;1390.0002024506648;-1500.0;2890.000202450665
0.21600000000000016;7816754917.0;7919813232.0;-605482.0;-15909.246143738397;-15859.514365464025;-104.57312911861118;3787.482564011043;4083.3333333333335;-295.8507693222905
0.22000000000000017;7753242846.0;7856015625.0;-481565.0;-15878.016959487562;-15946.95312007909;-0.36272141625886434;7807.296062708701;-583.3333333333334;8390.629396042035
0.22400000000000017;7689956698.0;7792196045.0;-249800.0;-15821.536053093369;-15956.705211491082;44.76418222961183;14120.22659854847;-3250.0;17370.22659854847
0.22800000000000017;7627039664.0;7728629150.0;-106133.0;-15729.257905117749;-15861.45393714459;-0.7201889733751159;23069.536993904876;1000.0;22069.536993904876
0.23200000000000018;7564628789.0;7665353394.0;28499.0;-15602.717975348984;-15833.953513946586;50.38330186854546;31634.982442191358;5416.666666666667;26218.31577552469
0.23600000000000018;7503110092.0;7602621460.0;41921.0;-15379.673510095825;-15655.94999182845;-21.16224059578053;55761.116313289676;14750.0;41011.116313289676
0.24000000000000019;7442482017.0;7540697021.0;-93746.0;-15157.018002278843;-15482.08631485843;-38.5642199883514;55663.876954245556;31416.666666666668;24247.210287578884
0.2440000000000002;7383162184.0;7479288940.0;143528.0;-14829.957559664179;-15304.700440834906;20.61113943258715;81765.11065366594;32750.0;49015.11065366594
0.2480000000000002;7325374553.0;7419050903.0;266969.0;-14446.90702920964;-15075.135403686765;62.50527446910928;95762.63261363465;50083.333333333336;45679.29928030132
0.25200000000000017;7269369912.0;7360164185.0;433682.0;-14001.159592093434;-14688.523225177989;34.543765893538875;111436.85927905154;54166.666666666664;57270.19261238487
0.25600000000000017;7215380272.0;7303161621.0;346565.0;-13497.40951777827;-14237.584351420037;-14.041320478598209;125937.51857879123;80000.0;45937.51857879124
0.2600000000000002;7163606603.0;7247839966.0;452049.0;-12943.416565444073;-13774.965231530869;-1.9541885809067026;138498.23808354905;93833.33333333333;44664.90475021571
0.2640000000000002;7114212566.0;7194847412.0;321754.0;-12348.508530928073;-13232.299137089632;-29.107251819705198;148727.00862900002;116333.33333333333;32393.675295666682
0.2680000000000002;7067328145.0;7143804932.0;521068.0;-11721.104852674525;-12741.058460639228;61.53166298762335;156850.91956338694;123500.0;33350.919563386924
0.2720000000000002;7023054286.0;7095355225.0;557818.0;-11068.464117292095;-12103.171421901796;33.40193695398375;163160.18384560765;135000.0;28160.183845607662
0.2760000000000002;6981468711.0;7049295044.0;753920.0;-10396.39330393922;-11483.099061666962;62.315069632753875;168017.7033382188;142500.0;25517.70333821878
0.2800000000000002;6942633679.0;7006102295.0;723376.0;-9708.757452600536;-10745.182831103877;-17.23721660913361;171908.962834671;152333.33333333334;19575.62950133766
0.2840000000000002;6906602093.0;6965480347.0;834545.0;-9007.896057551894;-10143.683662777727;66.06201466209677;175215.34876216037;166083.33333333334;9132.015428827031
0.2880000000000002;6873421608.0;6927473145.0;1102121.0;-8295.120917720422;-9485.197812198132;116.41909545863928;178193.78495786805;165500.0;12693.784957868047
0.2920000000000002;6843137258.0;6892393799.0;1263872.0;-7571.087219108363;-8740.286478807755;86.72033735080004;181008.4246530148;169416.66666666666;11591.757986348142
0.2960000000000002;6815792349.0;6860390625.0;1218127.0;-6836.226957408752;-7970.815354758762;31.6736886764902;183715.0654249026;171916.66666666666;11798.398758235948
0.3000000000000002;6791429794.0;6831128540.0;1344335.0;-6090.638295057219;-7290.470777636074;87.16188514721398;186397.16558788336;181916.66666666666;4480.4989212167075
0.3040000000000002;6770083434.0;6804959106.0;1334094.0;-5336.589810565068;-6533.801672240615;68.92878778555405;188512.1211230378;184750.0;3762.1211230377867
0.3080000000000002;6751751794.0;6781657104.0;1451940.0;-4582.909799615154;-5802.406306677826;93.4841701456944;188420.0027374784;183166.66666666666;5253.336070811742
0.3120000000000002;6736380555.0;6761447754.0;1492547.0;-3842.8094833037235;-5019.098183173537;66.46528786108138;185025.07907785763;183916.66666666666;1108.4124111909832
0.3160000000000002;6723857044.0;6744215698.0;1549051.0;-3130.877760366765;-4283.2321082437675;82.28748616448411;177982.93073423964;187833.33333333334;-9850.402599093712
0.32000000000000023;6713997184.0;6729807129.0;1698114.0;-2464.964773262497;-3554.5907791274562;91.60141474417469;166478.24677606695;185416.66666666666;-18938.419890599704
0.32400000000000023;6706541636.0;6718375854.0;1645289.0;-1863.8868273679677;-2835.7066727854835;63.3988719760132;150269.48647363237;185500.0;-35230.51352636764
0.32800000000000024;6701173019.0;6709449463.0;1649484.0;-1342.1542230378618;-2209.4358877058885;77.85633423889112;130433.15108252648;177666.66666666666;-47233.51558414018
0.33200000000000024;6697540163.0;6702703857.0;1752890.0;-908.2140122965668;-1658.4486722899303;103.07212937765803;108485.05268532375;167166.66666666666;-58681.6139813429
0.33600000000000024;6695277388.0;6698139038.0;1625066.0;-565.6938448783989;-1138.669954961516;63.0131781883033;85630.04185454198;151250.0;-65619.95814545802
0.34000000000000025;6694027215.0;6694969482.0;1694811.0;-312.54303663015713;-782.5701150165125;109.30603880137858;63287.70206206043;131333.33333333334;-68045.63127127291
0.34400000000000025;6693486357.0;6693162231.0;1632740.0;-135.21461549371278;-430.8750619992092;61.509003003876614;44332.10528411109;110333.33333333333;-66001.22804922223
0.34800000000000025;6693396065.0;6692261353.0;1558745.0;-22.572968063448894;-230.03762979707494;79.84393587383843;28160.411857565974;90000.0;-61839.588142434026
0.35200000000000026;6693501452.0;6691937256.0;1516470.0;26.346636096480854;-64.64585399163515;64.04105796063662;12229.901039982436;66250.0;-54020.09896001756
0.35600000000000026;6693586551.0;6692167969.0;1270409.0;21.274802942343786;41.09743345410004;31.289987510211446;-1267.9582885342668;52666.666666666664;-53934.62495520093
0.36000000000000026;6693673886.0;6692365723.0;1168852.0;21.833876641901302;54.88232147126273;39.297893721417;139.7684248893789;30166.666666666668;-30026.89824177729
0.36400000000000027;6693731387.0;6692656860.0;963819.0;14.37512180679501;58.502690005391834;20.852634695678496;-1864.688708776573;18916.666666666668;-20781.35537544324
0.36800000000000027;6693757359.0;6692700806.0;995366.0;6.493038516589955;12.043688194543124;66.5515928757975;-1970.5208225512636;2333.3333333333335;-4303.854155884597
0.3720000000000003;6693762505.0;6692816162.0;925186.0;1.2864716728010352;27.34444108628854;39.46042149513181;-1301.64171094723;-2750.0;1448.35828905277
0.3760000000000003;6693758461.0;6692832642.0;926605.0;-1.010898544273878;4.360752878945321;55.710447318413074;-574.3425542687283;-4333.333333333333;3758.990779064605
0.3800000000000003;6693752951.0;6692871094.0;889777.0;-1.3775495390858818;13.422450998693705;40.37027650702026;-91.66274870300096;-2916.6666666666665;2825.0039179636656
0.3840000000000003;6693749327.0;6692876587.0;879712.0;-0.9060295721460414;2.1966048711538315;49.44330634764405;117.87999173496011;-750.0;867.8799917349601
0.3880000000000003;6693748025.0;6692887573.0;863973.0;-0.3254030236105593;4.244568217925727;46.405360888044;145.15663713387053;-1333.3333333333333;1478.4899704672039
0.3920000000000003;6693748229.0;6692909546.0;839285.0;0.050980772002220724;3.9459843402989208;45.732532629371896;94.09594890319501;250.0;-155.904051096805
0.3960000000000003;6693748984.0;6692931519.0;816594.0;0.18872179588537383;4.554512884356082;44.26155227738361;34.435255970788276;-333.3333333333333;367.7685893041216
0.4000000000000003;6693749673.0;6692958984.0;789543.0;0.17224277262734008;3.4549654495343565;44.02100211238093;-4.119755814508435;583.3333333333334;-587.4530891478418
0.4040000000000003;6693750058.0;6692991943.0;757310.0;0.09617967054068705;7.367080915708095;38.25290012867877;-19.01577552166326;0.0;-19.01577552166326
0.4080000000000003;6693750136.0;6693030396.0;719426.0;0.019525022104035294;12.144724347498268;31.16301715044213;-19.16366210916294;166.66666666666666;-185.8303287758296
0.4120000000000003;6693749994.0;6693063354.0;686733.0;-0.035522878868127966;12.000554393332452;29.26965858907173;-13.761975243040816;0.0;-13.761975243040816
0.4160000000000003;6693749730.0;6693101807.0;648271.0;-0.06586951569472076;10.596168670471759;28.298239867295766;-7.586659206648197;416.6666666666667;-424.2533258733149
0.4200000000000003;6693749440.0;6693156738.0;593151.0;-0.07270907790645544;17.74733943765983;17.794488262427766;-1.7098905529336696;333.3333333333333;-335.04322388626696
0.4240000000000003;6693749206.0;6693195190.0;554426.0;-0.05829129663100838;10.120385683555156;23.076770833480218;3.6044453188617647;416.6666666666667;-413.0622213478049
0.4280000000000003;6693749091.0;6693239136.0;510212.0;-0.028921339019850712;14.254937226329;16.29083019634355;7.3424894027894165;-166.66666666666666;174.00915606945608
0.43200000000000033;6693749110.0;6693283081.0;466080.0;0.004855005653888985;7.57456502161175;20.343503931867918;8.444086168434925;333.3333333333333;-324.8892471648984
0.43600000000000033;6693749240.0;6693343506.0;405593.0;0.03249474844029413;17.510328733928503;6.809549630342129;6.909935696601287;-333.3333333333333;340.2432690299346
0.44000000000000034;6693749431.0;6693387451.0;361710.0;0.04766568948847138;10.101709176521748;11.616506646970482;3.792735262044312;583.3333333333334;-579.5405980712891
0.44400000000000034;6693749629.0;6693420410.0;328905.0;0.049496283623234105;7.0888339215293525;12.683813916322372;0.45764853369068165;-416.6666666666667;417.1243152003574
0.44800000000000034;6693749794.0;6693442383.0;307125.0;0.04137068184716312;5.229737958084792;13.246064641144438;-2.031400444017747;-333.3333333333333;331.3019328893156
0.45200000000000035;6693803248.0;6693464355.0;285338.0;13.363353115094702;4.954825834888965;12.211718048446418;3330.4956083118846;-833.3333333333334;4163.828941645218
0.45600000000000035;6693809672.0;6693469849.0;301138.0;1.606106282098856;2.023324203811586;21.368331967773415;-2939.3117082489616;-583.3333333333334;-2355.978374915628
0.46000000000000035;6693816572.0;6693513794.0;291688.0;1.724880624611311;9.295320743098856;16.82968921888808;29.693585628113752;83.33333333333333;-53.63974770521958
0.46400000000000036;6693824097.0;6693519287.0;293083.0;1.8812742914294356;-0.411334802467376;19.718403373671674;39.098416704531125;166.66666666666666;-127.56824996213554
0.46800000000000036;6693832330.0;6693524780.0;294735.0;2.0583407393028366;1.599985236208886;17.870307090327938;44.26661196835025;-166.66666666666666;210.9332786350169
0.47200000000000036;6693841289.0;6693552246.0;275071.0;2.239663922865773;7.43455919963494;11.02026280251713;45.33079589073408;-250.0;295.33079589073407
0.47600000000000037;6693850949.0;6693568726.0;267108.0;2.4151159115962253;5.771785500269384;12.383889549452494;43.86299718261311;-83.33333333333333;127.19633051594643
0.48000000000000037;6693861269.0;6693618164.0;226903.0;2.579878509968282;14.02127005442977;1.9010753999978665;41.190649593014214;500.0;-458.8093504069858
0.4840000000000004;6693872196.0;6693629150.0;225834.0;2.73179782944197;5.147939643669874;10.881514024801517;37.979829868421966;416.6666666666667;-378.6868367982447
