Zeit[sec];Sollposition[°];Istposition[°];Positionsschleppfehler[°];Sollgeschwindigkeit[°/s];Istgeschwindigkeit[°/s];Geschwindigkeitsdifferenz[°/s];Sollbeschleunigung[°/s*s];Istbeschleunigung[°/s*s];Beschleunigungsdifferenz[°/s*s]
0.0;1756.0;-461426.0;459338.0;0.3602104739285874;9.324192275571951;19.58239862386155;-155.16544050048677;583.3333333333334;-738.4987738338201
0.004;1649.0;-433960.0;434824.0;-0.026917292742917858;3.855144419863541;22.972633465590793;-96.78194166787631;0.0;-96.78194166787631
0.008;966.0;-384521.0;386225.0;-0.1707347391609253;10.354597232354902;13.029259820971525;-35.95436160450186;0.0;-35.95436160450186
0.012;319.0;-340576.0;341954.0;-0.16165042998906762;12.184358949312738;8.251210714345046;2.27107729296442;-166.66666666666666;168.93774395963106
0.016;-60.0;-329590.0;330303.0;-0.0951688190389584;2.466559368149241;17.18533035968425;16.620402737527307;-83.33333333333333;99.95373607086063
0.02;-187.0;-291138.0;291310.0;-0.03170581971196964;5.728713397890714;11.614541863712716;15.86574983174719;-250.0;265.86574983174717
0.024;-164.0;-258179.0;258071.0;0.005840278365625585;10.832648752161747;4.58121497573392;9.386524519398806;-333.3333333333333;342.7198578527321
0.028;-90.0;-247192.0;247016.0;0.01844862242052877;3.4135990046276565;11.39016976337868;3.152086013725796;-83.33333333333333;86.48541934705912
0.032;-25.0;-230713.0;230579.0;0.016230264840296084;3.3894562593541364;10.455903033755458;-0.5545893950581714;-250.0;249.44541060494183
0.036000000000000004;4931.0;-214233.0;214169.0;1.2393846523301688;2.433399285003047;10.43423591628281;305.7885968724682;-83.33333333333333;389.1219302058015
0.04000000000000001;53988.0;-192261.0;194200.0;12.264294501361855;4.852251255330463;7.300953610551211;2756.2274622579216;-333.3333333333333;3089.5607955912546
0.04400000000000001;295060.0;-186768.0;211120.0;60.26779987778447;1.8772445705629206;16.393377652452727;12000.876344105654;0.0;12000.876344105654
0.048000000000000015;1091530.0;-153809.0;303091.0;199.1174577049656;7.384878878907641;42.032916368287594;34712.41445679528;83.33333333333333;34629.08112346195
0.05200000000000002;3109935.0;-54932.0;664367.0;504.601424834951;28.803861770768016;126.09640737027524;76370.99178249635;750.0;75620.99178249635
0.05600000000000002;7325039.0;477905.0;1409224.0;1053.7757829795694;150.76489620217998;253.2120490690073;137293.58953615458;5500.0;131793.58953615458
0.060000000000000026;14918793.0;2257690.0;2511641.0;1898.4384728577272;483.7716151222843;387.47737674775954;211165.67246953945;22083.333333333332;189082.33913620614
0.06400000000000003;27132713.0;6542358.0;3768788.0;3053.4799354122133;1132.4035960836336;479.1772070733423;288760.3656386215;60500.0;228260.36563862153
0.06800000000000003;45160860.0;14913940.0;4802986.0;4507.036533090592;2169.848179233215;469.77615055600927;363389.14941959456;124750.0;238639.14941959456
0.07200000000000004;70096538.0;28663330.0;5545696.0;6233.91905051667;3519.7244084065073;436.0419450936897;431720.62935651955;207583.33333333334;224137.29602318624
0.07600000000000004;102871401.0;48817749.0;6124084.0;8193.715366887642;5120.073831018308;430.57274450286695;489949.079092743;292583.3333333333;197365.74575940968
0.08000000000000004;144162786.0;76146240.0;6798912.0;10322.845848997831;6934.319547509392;474.4443883803797;532282.6205275473;364500.0;167782.62052754735
0.08400000000000005;194322790.0;111840820.0;7209930.0;12540.000383073357;9056.056325354768;402.9386284845423;554288.6335188814;426333.3333333333;127955.30018554808
0.08800000000000005;253357361.0;156818848.0;6989654.0;14758.642171936219;11334.145820893933;274.6710239066324;554660.4472157155;489916.6666666667;64743.78054904884
0.09200000000000005;320933761.0;210536499.0;6898670.0;16894.0989692821;13540.33365824489;280.2525879865407;533864.19933647;535416.6666666666;-1552.4673301966905
0.09600000000000006;396420029.0;273515625.0;6288817.0;18871.56629564407;15876.669286588902;92.97730475088065;494366.83159049245;560750.0;-66383.16840950756
0.10000000000000006;478968681.0;345745239.0;4721692.0;20637.162003983918;18104.464993946418;-155.54204986072727;441398.92708496243;571083.3333333334;-129684.40624837091
0.10400000000000006;567619308.0;424176636.0;4530341.0;22162.655605214568;19670.11054149228;161.72060246019464;381373.40030766244;544083.3333333334;-162709.93302567094
0.10800000000000007;661386926.0;510249023.0;3384563.0;23441.903476776377;21626.93396043387;-192.20908675307874;319811.96789045224;494666.6666666667;-174854.69877621444
0.11200000000000007;759330406.0;602506714.0;1770552.0;24485.868785570234;23037.01600444777;-269.8639254766458;260991.3271984642;452666.6666666667;-191675.3394682025
0.11600000000000008;860604126.0;698461304.0;1209262.0;25318.428779798116;24043.849117684567;-122.96958092680507;208139.99855697056;386250.0;-178110.00144302944
0.12000000000000008;964482015.0;798327026.0;582940.0;25969.470973136213;24995.01597768143;-150.19074738097697;162760.54833452418;330666.6666666667;-167906.1183321425
0.12400000000000008;1070350321.0;901768799.0;-572114.0;26467.075381430543;25854.502599640946;-317.15088393473707;124401.10207358247;252583.33333333334;-128182.23125975087
0.12800000000000009;1177683870.0;1006578369.0;-729884.0;26833.386013145173;26233.188597309767;-114.03299170533865;91577.65792865757;210333.33333333334;-118755.67540467577
0.1320000000000001;1286023990.0;1113486328.0;-1200254.0;27085.028711046507;26688.893158405586;-151.51222593365674;62910.67447533351;165500.0;-102589.32552466649
0.1360000000000001;1394976761.0;1221262207.0;-1252080.0;27238.19141254263;27014.537638487793;-158.65037889959422;38290.6753740308;112916.66666666667;-74625.99129263588
0.1400000000000001;1504234451.0;1330004883.0;-1417627.0;27314.421104770772;27135.567538753563;-76.34429866408391;19057.42305703552;90500.0;-71442.57694296449
0.1440000000000001;1613593736.0;1439274902.0;-1617569.0;27339.819905756623;27336.54951140863;-166.08579469056713;6349.700246462817;59583.333333333336;-53233.63308687052
0.1480000000000001;1722948196.0;1548127441.0;-1173924.0;27338.613758688374;27226.88712825517;26.722105897315487;-301.53676706231636;40916.666666666664;-41218.20343372898
0.1520000000000001;1832260842.0;1657842407.0;-1532113.0;27328.16026022473;27404.835666854906;-157.56958066430525;-2613.374615911198;15000.0;-17613.374615911198
0.1560000000000001;1941532976.0;1767134399.0;-1486196.0;27318.03218285012;27320.31707212771;-75.01265497630811;-2532.0193436527916;14416.666666666666;-16948.686010319456
0.16000000000000011;2050779803.0;1875717773.0;-772741.0;27311.70542924299;27129.843221648534;147.99820511593134;-1581.6884017822304;-3666.6666666666665;2084.978264884436
0.16400000000000012;2160016246.0;1984949341.0;-741971.0;27309.10953131107;27327.129843591316;-56.065035487525165;-648.9744829796109;-11416.666666666666;10767.692183687055
0.16800000000000012;2269251606.0;2094164429.0;-714201.0;27308.838662915;27315.068383220667;-47.20717612485532;-67.7170990175;-4833.333333333333;4765.616234315833
0.17200000000000013;2378489586.0;2203181763.0;-495461.0;27309.493704676894;27210.82183752845;68.46784903532534;163.76044047319738;5166.666666666667;-5002.90622619347
0.17600000000000013;2487730402.0;2312078247.0;-155540.0;27310.2025656491;27284.169792736688;15.597771121356345;177.21524305125058;-500.0;677.2152430512506
0.18000000000000013;2596972907.0;2421573486.0;-411690.0;27310.625036459747;27352.5693076484;-67.49978880731942;105.61770266212989;1416.6666666666667;-1311.0489640045369
0.18400000000000014;2706215925.0;2531019287.0;-616022.0;27310.753108470664;27321.622897598376;-48.21830235623929;32.018002729273576;5750.0;-5717.981997270726
0.18800000000000014;2815458757.0;2639492798.0;153166.0;27310.706730935734;27174.167972667856;145.69532692815483;-11.594383732699498;2416.6666666666665;-2428.261050399366
0.19200000000000014;2924701185.0;2749042969.0;-154064.0;27310.605832533594;27355.127078721296;-53.63694864055287;-25.22460053478426;-5833.333333333333;5808.108732798549
0.19600000000000015;3033943276.0;2858626099.0;-494521.0;27310.521344815836;27412.76075995499;-131.76502191582767;-21.121929439686937;-83.33333333333333;62.21140389364639
0.20000000000000015;3143185185.0;2967209473.0;164402.0;27310.47592645205;27153.094291940197;167.34275373499622;-11.354590946211829;7500.0;-7511.354590946212
0.20400000000000015;3252426804.0;3076798096.0;-182200.0;27310.403613155257;27397.066570510524;-97.49473832107469;-18.07832419854094;-2750.0;2731.921675801459
0.20800000000000016;3361666653.0;3186205444.0;-347753.0;27309.96095662242;27356.275623574704;-66.69328209169544;-110.66413320895663;1583.3333333333333;-1693.9974665422899
0.21200000000000016;3470900042.0;3295426025.0;-327415.0;27308.34588309144;27254.010936766223;36.572693700971286;-403.7683827455112;4916.666666666667;-5320.435049412178
0.21600000000000016;3580114751.0;3404196167.0;139741.0;27303.675882610893;27252.91093021385;64.79672867966292;-1167.5001201365376;-4416.666666666667;3249.1665465301294
0.22000000000000017;3689277762.0;3513471680.0;90248.0;27290.75139336029;27306.15207671409;5.766567477079661;-3231.1223126507684;-8666.666666666666;5435.544354015898
0.22400000000000017;3798313449.0;3623005371.0;-249122.0;27258.92054562625;27333.220607469168;-49.58903961691976;-7957.711933509927;1083.3333333333333;-9041.04526684326
0.22800000000000017;3907084013.0;3731759033.0;110048.0;27192.63974311056;27207.51514999425;77.29441902570397;-16570.200628922066;6500.0;-23070.200628922066
0.23200000000000018;4015373176.0;3840946655.0;-146258.0;27072.289381203445;27275.717297553696;-51.665025613983744;-30087.59047677904;-3500.0;-26587.59047677904
0.23600000000000018;4122869479.0;3950084839.0;-703192.0;26874.074445848633;27267.447535750543;-164.32798658455067;-49553.73383870301;-6583.333333333333;-42970.400505369675
0.24000000000000019;4229158800.0;4057575073.0;-215799.0;26572.329151219634;26875.882755041766;105.57473930369451;-75436.32365724989;-14333.333333333334;-61102.99032391655
0.2440000000000002;4333730953.0;4165054321.0;-672648.0;26143.036928088073;26835.508106921014;-120.2684199856958;-107323.05578289015;-32416.666666666668;-74906.38911622348
0.2480000000000002;4435992385.0;4271198730.0;-1201494.0;25565.35682320755;26531.375437014256;-199.5755457395535;-144420.02622013114;-48750.0;-95670.02622013114
0.25200000000000017;4535284751.0;4375145874.0;-1482589.0;24823.090189004022;25919.688120469982;-92.13228359543791;-185566.65855088158;-65750.0;-119816.65855088158
0.25600000000000017;4630916302.0;4476659546.0;-1898477.0;23907.88679024957;25372.569932549613;-212.03400752306698;-228800.8496886132;-102166.66666666667;-126634.18302194652
0.2600000000000002;4722201016.0;4575212402.0;-2593027.0;22821.177424242796;24581.366113309174;-272.37217329838313;-271677.34150169324;-138666.66666666666;-133010.6748350266
0.2640000000000002;4808491356.0;4670057373.0;-3508449.0;21572.5839633264;23629.345825244116;-357.4667388678499;-312148.365229099;-177250.0;-134898.365229099
0.2680000000000002;4889202800.0;4759249878.0;-3370962.0;20177.860006920775;22237.05743890248;-106.81809494883055;-348680.98910140636;-218916.66666666666;-129764.32243473968
0.2720000000000002;4963833934.0;4843723755.0;-3737180.0;18657.782580585186;21083.55858682216;-280.8757023386752;-380019.3565838972;-281916.6666666667;-98102.68991723051
0.2760000000000002;5031976656.0;4922589111.0;-4269151.0;17035.679678465815;19616.348310264053;-289.1521009934695;-405525.72552984295;-310750.0;-94775.72552984292
0.2800000000000002;5093317894.0;4995071411.0;-4657244.0;15335.308855871273;18048.446454427805;-304.33026550514114;-425092.7056486353;-343333.3333333333;-81759.37231530197
0.2840000000000002;5147640612.0;5060418091.0;-4519866.0;13580.678856259306;16228.635259679337;-128.81349488603337;-438657.49990299175;-368750.0;-69907.49990299172
0.2880000000000002;5194827842.0;5118579712.0;-4083130.0;11796.8068325368;14508.097717395794;-103.49692998826504;-445968.00593062653;-423166.6666666667;-22801.339263959846
0.2920000000000002;5234885965.0;5170534058.0;-4502744.0;10014.530377469564;12923.646799650242;-310.12893264257946;-445569.1137668091;-428416.6666666667;-17152.44710014241
0.2960000000000002;5267991235.0;5215193481.0;-4759707.0;8276.31707072181;11048.09198583259;-233.05996452136242;-434553.32668693835;-428416.6666666667;-6136.660020271676
0.3000000000000002;5294520895.0;5251832886.0;-4055914.0;6632.4146986556725;9084.65805372261;7.786093308272029;-410975.5930165345;-437666.6666666667;26691.07365013218
0.3040000000000002;5315039436.0;5281743164.0;-3427310.0;5129.634855992839;7438.379854736336;-9.29814496995732;-375694.96066570835;-457583.3333333333;81888.372667625
0.3080000000000002;5330254373.0;5305968018.0;-3467289.0;3803.734174200107;5986.898195450914;-148.71732301468546;-331475.170448183;-445416.6666666667;113941.49621848368
0.3120000000000002;5340963216.0;5323974609.0;-3022914.0;2677.210529518548;4429.595379955709;1.7710835450607192;-281630.9111703898;-404666.6666666667;123035.75549627686
0.3160000000000002;5348000938.0;5336065063.0;-1653951.0;1759.4304946219884;2993.8234860317334;271.79355429144516;-229445.0087241399;-378583.3333333333;149138.32460919343
0.32000000000000023;5352199023.0;5344491577.0;-800761.0;1049.5211417939988;2108.2142596835492;163.6658907920705;-177477.33820699737;-353750.0;176272.66179300263
0.32400000000000023;5354359536.0;5350198975.0;-574799.0;540.1283188206141;1384.2882839653605;64.56392198594472;-127348.20574334617;-291333.3333333333;163985.12758998715
0.32800000000000024;5355218192.0;5353027954.0;3081.0;214.66403718475098;680.4640541264378;171.43527773566097;-81366.0704089658;-222083.33333333334;140717.26292436756
0.33200000000000024;5355380270.0;5353928833.0;758487.0;40.519493298021274;238.5951405014284;220.98561960200297;-43536.13597168243;-173083.33333333334;129547.19736165092
0.33600000000000024;5355266650.0;5354318848.0;958574.0;-28.40511379707573;101.11668635768443;103.92321745971033;-17231.15177377425;-135166.66666666666;117935.5148928924
0.34000000000000025;5355111796.0;5354362793.0;971478.0;-38.71341173513372;13.374620146807283;59.12640157182914;-2577.074484514497;-83083.33333333333;80506.25884881883
0.34400000000000025;5355008420.0;5354373779.0;832139.0;-25.84405920142731;4.519409837983549;13.320592419383413;3217.338133426602;-35166.666666666664;38384.004800093266
0.34800000000000025;5354967164.0;5354368286.0;703430.0;-10.314040172197473;0.14204158781841397;8.513244056271082;3882.5047573074594;-12000.0;15882.504757307459
0.35200000000000026;5354966153.0;5354379272.0;613396.0;-0.252788221075946;5.442938117507845;11.598766207098455;2515.3129877803817;-4166.666666666667;6681.979654447048
0.35600000000000026;5354980679.0;5354373779.0;593225.0;3.6316585200905394;2.466374064013362;26.71121875009957;971.1116852916214;-83.33333333333333;1054.4450186249546
0.36000000000000026;5354995019.0;5354384766.0;587152.0;3.5850194145739387;8.036116929281503;28.42138463988895;-11.659776379150166;0.0;-11.659776379150166
0.36400000000000027;5355003227.0;5354395752.0;590527.0;2.0519786786916927;5.414496614594013;33.607529798741346;-383.2601839705615;250.0;-633.2601839705615
0.36800000000000027;5355005519.0;5354417725.0;580464.0;0.5730260259953338;6.709696077402681;31.095609915176063;-369.7381631740897;416.6666666666667;-786.4048298407564
0.3720000000000003;5355004415.0;5354434204.0;569884.0;-0.2760717646502071;7.868558075353503;27.799061645707624;-212.27444766138524;250.0;-462.27444766138524
0.3760000000000003;5355002320.0;5354472656.0;532411.0;-0.5238108594611771;7.571265784777701;24.618431972636856;-61.934773702742504;500.0;-561.9347737027425
0.3800000000000003;5355000634.0;5354500122.0;503468.0;-0.4214753675416629;4.671601332120598;25.167157405397596;25.583872979878546;250.0;-224.41612702012145
0.3840000000000003;5354999812.0;5354555054.0;446609.0;-0.2053658831417977;13.441496173761786;12.873258986593454;54.0273710999663;500.0;-445.97262890003367
0.3880000000000003;5354999760.0;5354588013.0;412304.0;-0.013210821492288333;12.839077535029501;11.562771509224659;48.038765412377344;0.0;48.038765412377344
0.3920000000000003;5355000176.0;5354642944.0;356851.0;0.10414311067058868;13.531555744163692;7.749058585688408;29.338483040719254;333.3333333333333;-303.99485029261405
0.3960000000000003;5355000750.0;5354697876.0;302049.0;0.14335461805597044;12.394528978817165;5.760603291545609;9.80287684634544;416.6666666666667;-406.86378982032124
0.4000000000000003;5355001235.0;5354747314.0;253087.0;0.12125374803550854;13.527301805369556;1.7769204346209797;-5.525217505115476;166.66666666666666;-172.19188417178214
0.4040000000000003;5355001489.0;5354807739.0;193200.0;0.06364180851806017;19.554755156379194;-7.8283929429224965;-14.40298487936209;0.0;-14.40298487936209
0.4080000000000003;5355001482.0;5354868164.0;133169.0;-0.0018004446032201338;17.30563846031204;-9.216957448849112;-16.360563280320076;166.66666666666666;-183.02722994698672
0.4120000000000003;5355001268.0;5354939575.0;61909.0;-0.05345616676331716;18.34928099875897;-14.596708451123913;-12.913930540024257;500.0;-512.9139305400242
0.4160000000000003;5355000945.0;5355016479.0;-15083.0;-0.08070304502656965;22.226643988292665;-23.153521668889763;-6.811719565813123;416.6666666666667;-423.4783862324798
0.4200000000000003;5355000611.0;5355087891.0;-86751.0;-0.08358303488928776;19.550622071761637;-24.81963852980262;-0.7199974656795262;166.66666666666666;-167.38666413234617
0.4240000000000003;5355000334.0;5355115356.0;-114542.0;-0.06921227901107924;5.78249117379263;-12.736696440166183;3.5926889695521296;-250.0;253.59268896955214
0.4280000000000003;5355000145.0;5355159302.0;-158800.0;-0.04736578190825255;10.320345938384532;-19.926214318153978;5.461624275706671;-833.3333333333334;838.79495760904
0.43200000000000033;5355000039.0;5355197754.0;-197494.0;-0.026466430313057423;11.970165566865354;-23.88044025475469;5.224837898798782;-750.0;755.2248378987988
0.43600000000000033;5354999994.0;5355203247.0;-203144.0;-0.011199219177253816;1.4372262135483325;-13.665073735879323;3.816802783950902;-666.6666666666666;670.4834694506176
0.44000000000000034;5354999984.0;5355230713.0;-230692.0;-0.002468947914622319;4.10922203521058;-17.971277711982175;2.1825678156578743;-166.66666666666666;168.84923448232453
0.44400000000000034;5354999989.0;5355247192.0;-247203.0;0.001142595456133885;7.408938314948231;-22.248945574327255;0.9028858426890509;-583.3333333333334;584.2362191760225
0.44800000000000034;5354999996.0;5355247192.0;-247206.0;0.0017575526785034452;0.4464002952985466;-15.279848476669457;0.15373930559239005;-250.0;250.15373930559238
0.45200000000000035;5355000000.0;5355258179.0;-258187.0;0.0011557815295087338;1.7032567258179188;-17.193111470800634;-0.15044278724867785;-333.3333333333333;333.18289054608465
0.45600000000000035;5355000002.0;5355269165.0;-269167.0;0.00040259965590024727;4.750715084642172;-20.89921972809936;-0.18829546840212164;-83.33333333333333;83.14503786493121
0.46000000000000035;5355000002.0;5355269165.0;-269164.0;-7.52534500358815e-05;-2.500607480440289;-13.648371836915958;-0.1194632764840322;0.0;-0.1194632764840322
0.46400000000000036;5355000001.0;5355280151.0;-280149.0;-0.00024088838102322559;0.12451517241820693;-16.93323762090017;-0.04140873274683602;0.0;-0.04140873274683602
0.46800000000000036;5355000000.0;5355285645.0;-285644.0;-0.00021228084195237627;1.891249658972025;-19.030027784188615;0.0071518847677123285;-83.33333333333333;83.34048521810104
0.47200000000000036;5354999999.0;5355296631.0;-296631.0;-0.00011636546328460653;2.7463402126543226;-20.544428788058717;0.023978844666942434;-83.33333333333333;83.35731217800027
0.47600000000000037;5354999999.0;5355296631.0;-296632.0;-3.129419482988306e-05;-0.14665292412415148;-17.651441495363486;0.021267817113680868;83.33333333333333;-83.31206551621965
0.48000000000000037;5354999999.0;5355296631.0;-296632.0;1.577945937227846e-05;-0.5251106573939324;-17.27289254061717;0.011768413550540379;0.0;0.011768413550540379
