Zeit[sec];Sollposition[°];Istposition[°];Positionsschleppfehler[°];Sollgeschwindigkeit[°/s];Istgeschwindigkeit[°/s];Geschwindigkeitsdifferenz[°/s];Sollbeschleunigung[°/s*s];Istbeschleunigung[°/s*s];Beschleunigungsdifferenz[°/s*s]
0.0;-9979199999.0;-9979090576.0;-109423.0;0.0;-0.005269663117825985;-6.560110336901634;0.0;166.66666666666666;-166.66666666666666
0.004;-9979199999.0;-9979090576.0;-109423.0;0.0;0.6682798214331269;-7.233659821452586;0.0;-83.33333333333333;83.33333333333333
0.008;-9979199999.0;-9979096069.0;-103930.0;0.0;-2.002236706674099;-4.233563293267991;0.0;83.33333333333333;-83.33333333333333
0.012;-9979199999.0;-9979096069.0;-103930.0;0.0;-1.4978598027452827;-4.737940197196807;0.0;0.0;0.0
0.016;-9979199999.0;-9979096069.0;-103930.0;0.0;1.8111138313859703;-8.04691383132806;0.0;-83.33333333333333;83.33333333333333
0.02;-9979199999.0;-9979107056.0;-92943.0;0.0;-2.448559368170798;-3.128020631909864;0.0;0.0;0.0
0.024;-9979199999.0;-9979107056.0;-92943.0;0.0;-2.1536093897521495;-3.422970610328512;0.0;0.0;0.0
0.028;-9979199999.0;-9979101563.0;-98436.0;0.0;3.3383572269901634;-9.244517226940445;0.0;0.0;0.0
0.032;-9979199999.0;-9979112549.0;-87450.0;0.0;-2.378178917147219;-2.868821082786823;0.0;0.0;0.0
0.036000000000000004;-9979199999.0;-9979118042.0;-81957.0;0.0;-1.1449683581143617;-3.7724516419500596;0.0;-166.66666666666666;166.66666666666666
0.04000000000000001;-9979199999.0;-9979123535.0;-76464.0;0.0;-3.5186274838969114;-1.0692125160901407;0.0;83.33333333333333;-83.33333333333333
0.04400000000000001;-9979199999.0;-9979123535.0;-76464.0;0.0;-1.8943015581965448;-2.6935384417905075;0.0;-83.33333333333333;83.33333333333333
0.048000000000000015;-9979198115.0;-9979134521.0;-65478.0;0.47100015889568586;-5.698868788473308;1.7701887884332463;117.75003972392146;166.66666666666666;-48.91662694274519
0.05200000000000002;-9979071342.0;-9979123535.0;-75716.0;31.693439864840176;0.9203367863744497;-5.276552582680912;7805.609926486122;0.0;7805.609926486122
0.05600000000000002;-9978690423.0;-9979118042.0;-29820.0;95.22964005821858;2.932702233567834;8.125547651498628;15884.050048344601;83.33333333333333;15800.716715011267
0.060000000000000026;-9977821897.0;-9979079590.0;158535.0;217.13151383692215;8.925087434872985;57.288619070854104;30475.468444675895;500.0;29975.468444675895
0.06400000000000003;-9976297160.0;-9978887329.0;539032.0;381.18428442755675;54.220493819169704;121.31097205254427;41013.192647658645;1916.6666666666667;39096.52598099198
0.06800000000000003;-9973807787.0;-9977931519.0;709068.0;622.3432846598029;261.834593321085;62.171091938823736;60289.75005806153;10666.666666666666;49623.08339139486
0.07200000000000004;-9969961747.0;-9975948486.0;629390.0;961.5098812982942;495.2497698462158;18.35244336139806;84791.64915962283;31083.333333333332;53708.3158262895
0.07600000000000004;-9964302711.0;-9973108521.0;811043.0;1414.7587838395814;722.7833846251294;81.28369510669711;113312.2256353218;48250.0;65062.225635321796
0.08000000000000004;-9956319324.0;-9968911743.0;1171181.0;1995.8467920500998;1075.0802531632855;134.419291701342;145272.0020526296;61750.0;83522.0020526296
0.08400000000000005;-9945519485.0;-9962863770.0;1693190.0;2699.9596089158767;1541.401378105998;202.68536620053305;176028.20421644422;75083.33333333333;100944.87088311091
0.08800000000000005;-9931471467.0;-9954266968.0;2182835.0;3512.004438757562;2194.4798595867305;208.1019500398188;203011.20746042137;101500.0;101511.20746042136
0.09200000000000005;-9913776418.0;-9942687378.0;2674433.0;4423.761847744422;2933.436826319583;244.82618839173983;227939.352246715;138500.0;89439.35224671497
0.09600000000000006;-9892074130.0;-9927767944.0;3229976.0;5425.571868238476;3761.350854055986;301.19163598051637;250452.50512351346;170250.0;80202.50512351345
0.10000000000000006;-9866092335.0;-9908975830.0;3700349.0;6495.4483844361075;4737.8977434832;299.74473553728603;267469.1290494079;199416.66666666666;68052.46238274126
0.10400000000000006;-9835636210.0;-9886008911.0;4108996.0;7614.030805916567;5798.821297898844;291.6096716025295;279645.6053701149;224666.66666666666;54978.93870344828
0.10800000000000007;-9800564810.0;-9858609009.0;4439816.0;8767.849775472281;6893.658620687649;305.41036830310077;288454.7423889285;249250.0;39204.742388928484
0.11200000000000007;-9760794729.0;-9826550903.0;4641502.0;9942.519765204363;8042.895837256469;300.5420877916522;293667.4974330203;270000.0;23667.497433020344
0.11600000000000008;-9716296464.0;-9789790649.0;4788559.0;11124.56560157261;9248.011646989808;266.1293071679265;295511.4590920621;281583.3333333333;13928.125758728755
0.12000000000000008;-9667111505.0;-9748048096.0;4663207.0;12296.239158446075;10485.218928912238;198.8731289747866;292918.38921836595;293083.3333333333;-164.94411496734028
0.12400000000000008;-9613370638.0;-9701570435.0;4514308.0;13435.216214889633;11672.52238075576;180.5259088953353;284744.26411088964;299666.6666666667;-14922.40255577707
0.12800000000000009;-9555252943.0;-9650544434.0;4452151.0;14529.423062721798;12819.508580954767;188.58096910740096;273551.7119580413;299666.6666666667;-26114.954708625362
0.1320000000000001;-9492973055.0;-9594673462.0;4030695.0;15569.97112756244;14000.937029574863;103.28310980805509;260137.01621016025;296833.3333333333;-36696.31712317306
0.1360000000000001;-9426816927.0;-9534693604.0;3793131.0;16539.03120833718;14992.528092996889;170.63251062172458;242265.0201936849;289416.6666666667;-47151.64647298178
0.1400000000000001;-9357135802.0;-9470648804.0;3540699.0;17420.280534082238;16078.612539939806;81.92074676856828;220312.33143626468;273583.3333333333;-53271.00189706863
0.1440000000000001;-9284324354.0;-9402714844.0;3137762.0;18202.861071428215;16994.944243993068;76.0761860705461;195645.13433649426;262500.0;-66854.86566350574
0.1480000000000001;-9208816675.0;-9332336426.0;3660938.0;18876.918998131157;17574.08105122602;370.9731478250069;168514.48167573562;234500.0;-65985.51832426438
0.1520000000000001;-9131083159.0;-9258552246.0;3738878.0;19433.377994059632;18474.097207309336;215.7645470655334;139114.74898211873;208916.66666666666;-69801.91768454792
0.1560000000000001;-9051587104.0;-9181543579.0;3104602.0;19874.01288048983;19250.84412144359;29.02873573721081;110158.72160754952;195000.0;-84841.27839245048
0.16000000000000011;-8970734167.0;-9102914429.0;2894745.0;20213.233270096967;19689.51381093739;88.99322874246354;84805.09740178422;177250.0;-92444.90259821578
0.16400000000000012;-8888891954.0;-9022373657.0;2377683.0;20460.5521845613;20134.746783318602;13.84081629425782;61829.72861608323;160666.66666666666;-98836.93805058343
0.16800000000000012;-8806390231.0;-8940783691.0;2024936.0;20625.42983541563;20411.84073943256;18.95915642097316;41219.41271358264;116166.66666666667;-74947.25395308403
0.17200000000000013;-8723478367.0;-8858298340.0;1637487.0;20727.964836197698;20620.888356898882;1.8353257484232017;25633.750195516768;88250.0;-62616.24980448323
0.17600000000000013;-8640332906.0;-8776038208.0;2037828.0;20786.364360464304;20569.79747707706;217.5894840538058;14599.881066651506;56833.333333333336;-42233.45226668183
0.18000000000000013;-8557081002.0;-8692981567.0;1983265.0;20812.975003589912;20780.751758074814;88.76268598185561;6652.660781402119;31083.333333333332;-24430.672551931213
0.18400000000000014;-8473803349.0;-8609414063.0;1602056.0;20819.412404939238;20853.398992663177;39.29724729661393;1609.350337331307;28250.0;-26640.649662668693
0.18800000000000014;-8390539437.0;-8525813599.0;1263082.0;20815.976965755504;20882.114388785736;9.041942117692088;-858.8597959333129;24250.0;-25108.859795933313
0.19200000000000014;-8307299749.0;-8442268066.0;989603.0;20809.92101462057;20886.608765964953;-9.21999813187358;-1513.9877837336826;19250.0;-20763.987783733683
0.19600000000000015;-8224079649.0;-8358590698.0;566623.0;20805.023994938132;20901.57452901278;-53.981143731558404;-1224.2549206093827;4333.333333333333;-5557.588253942716
0.20000000000000015;-8140870097.0;-8275528564.0;736553.0;20802.386942296533;20761.529877527715;90.6782093934562;-659.2631603998598;-4083.3333333333335;3424.0701729334737
0.20400000000000015;-8057669016.0;-8192768555.0;1192576.0;20800.269380767615;20749.484234922445;126.07746332202805;-529.3903822293942;-16250.0;15720.609617770606
0.20800000000000016;-7974488916.0;-8109332886.0;963163.0;20795.02400558877;20844.189138909212;15.163454808302049;-1311.3437947113198;-9083.333333333334;7771.989538622014
0.21200000000000016;-7891351038.0;-8025924683.0;747772.0;20784.468404107563;20848.497476532542;-5.429077477241663;-2638.9003703015987;1000.0;-3638.9003703015987
0.21600000000000016;-7808297532.0;-7942225342.0;211913.0;20763.375513661;20910.16088592185;-106.57649676887377;-5273.222611640449;17083.333333333332;-22356.55594497378
0.22000000000000017;-7725412472.0;-7859031372.0;122616.0;20721.263953700898;20790.618197120042;-7.093985270723351;-10527.88999002587;5416.666666666667;-15944.556656692537
0.22400000000000017;-7642806004.0;-7776035156.0;113614.0;20651.616136534976;20760.763601302813;-7.14423201783211;-17411.95429148047;-8333.333333333334;-9078.620958147136
0.22800000000000017;-7560601851.0;-7693758545.0;612593.0;20551.037242087386;20614.04787454877;116.60413531469021;-25144.72361189746;-20416.666666666668;-4728.056945230794
0.23200000000000018;-7478949235.0;-7610861206.0;163843.0;20413.152922527268;20719.746845331978;-97.76999622149742;-34471.079890029614;-17833.333333333332;-16637.746556696282
0.23600000000000018;-7398026084.0;-7528881226.0;171697.0;20230.786793244642;20460.86950327869;46.38991000529495;-45591.53232065637;-9666.666666666666;-35924.865653989706
0.24000000000000019;-7318029991.0;-7447576904.0;234002.0;19999.022414929736;20345.958971093518;9.736666578985023;-57941.094578726734;-22083.333333333332;-35857.7612453934
0.2440000000000002;-7239168674.0;-7366525269.0;-257772.0;19715.32832878863;20259.452701569648;-134.9546314696563;-70923.52153527645;-30000.0;-40923.52153527645
0.2480000000000002;-7161657262.0;-7286605225.0;-626212.0;19377.85216004111;19958.173793182377;-107.8463762832398;-84369.0421868796;-41583.333333333336;-42785.70885354626
0.25200000000000017;-7085698635.0;-7208580322.0;-318365.0;18989.655834222507;19468.47598109738;95.60868988399307;-97049.08145465105;-52333.333333333336;-44715.74812131772
0.25600000000000017;-7011459739.0;-7132142944.0;147923.0;18559.72304022342;19105.666361858574;129.12479998934214;-107483.1984997718;-84500.0;-22983.19849977179
0.2600000000000002;-6939085099.0;-7056227417.0;-481725.0;18093.658990925505;18972.23781802329;-179.6725310749316;-116516.01232447865;-92666.66666666667;-23849.34565781198
0.2640000000000002;-6868709111.0;-6982229004.0;-970314.0;17593.996267801173;18454.857380060097;-135.62115566764987;-124915.68078108321;-82083.33333333333;-42832.34744774988
0.2680000000000002;-6800445532.0;-6910449829.0;-1156360.0;17065.893913410036;17908.76558865929;-79.86581618361015;-132025.588597784;-88833.33333333333;-43192.25526445068
0.2720000000000002;-6734382891.0;-6840774536.0;-1281491.0;16515.65952832059;17394.051350067286;-83.40116291462618;-137558.5962723617;-113416.66666666667;-24141.92960569501
0.2760000000000002;-6670587842.0;-6773170166.0;-1482542.0;15948.761452420706;16894.267155248162;-132.39074838095985;-141724.51897497103;-135833.33333333334;-5891.18564163769
0.2800000000000002;-6609110691.0;-6707993774.0;-1482462.0;15369.286962694385;16229.456633490858;-24.287024881958132;-144868.6224315802;-132416.66666666666;-12451.95576491355
0.2840000000000002;-6549992477.0;-6645591431.0;-995479.0;14779.552900505132;15588.839328296948;73.7624716496648;-147433.51554731317;-146500.0;-933.5155473131636
0.2880000000000002;-6493270745.0;-6584930420.0;-1101040.0;14180.432353566124;15145.112448488153;-72.31286851882942;-149780.13673475198;-147750.0;-2030.1367347519772
0.2920000000000002;-6438982488.0;-6526411743.0;-1437848.0;13572.063457973049;14580.616483092856;-121.42092516979756;-152092.22389826892;-142750.0;-9342.223898268912
0.2960000000000002;-6387165201.0;-6470886841.0;-1191811.0;12954.32116037354;13860.306193701916;10.919210480373295;-154435.57439987716;-139333.33333333334;-15102.241066543826
0.3000000000000002;-6337856837.0;-6417460327.0;-1295511.0;12327.09052747233;13336.884998413765;-83.91270771782547;-156807.65822530247;-147250.0;-9557.658225302475
0.3040000000000002;-6291095426.0;-6366214600.0;-1704221.0;11690.352062381207;12771.19013926717;-164.1898005853036;-159184.61627278067;-151916.66666666666;-7267.949606114002
0.3080000000000002;-6246918979.0;-6317995605.0;-1609978.0;11044.111279153767;12029.711083568682;-48.00090897679365;-161560.19580686005;-151416.66666666666;-10143.529140193408
0.3120000000000002;-6205365087.0;-6272325439.0;-1528708.0;10388.472593852699;11397.805074667245;-51.66897587958738;-163909.67132526703;-156583.33333333334;-7326.337991933684
0.3160000000000002;-6166470407.0;-6229160156.0;-1542199.0;9723.669426552315;10751.88463122205;-56.4692193464889;-166200.79182509606;-165833.33333333334;-367.4584917627326
0.32000000000000023;-6130270985.0;-6188735962.0;-1451471.0;9049.855043230338;10077.864691327493;-36.22279283817079;-168453.59583049413;-165083.33333333334;-3370.26249716078
0.32400000000000023;-6096801950.0;-6150811157.0;-1534642.0;8367.258462666541;9451.506585661162;-83.17722268781654;-170649.14514094926;-161666.66666666666;-8982.478474282601
0.32800000000000024;-6066096695.0;-6115534058.0;-1679083.0;7676.313451967855;8786.840093837536;-104.42077807682654;-172736.2526746715;-163083.33333333334;-9652.919341338162
0.33200000000000024;-6038187448.0;-6082937622.0;-1886281.0;6977.311291048263;8133.733190905676;-149.60089962614802;-174750.54022989798;-164500.0;-10250.540229897979
0.33600000000000024;-6013094402.0;-6052955933.0;-2255094.0;6273.261260068641;7483.158956535313;-215.24607354124237;-176012.50774490563;-164250.0;-11762.507744905633
0.34000000000000025;-5990813701.0;-6026033936.0;-2368041.0;5570.17491730492;6686.26946657626;-126.08975624305276;-175771.58569093014;-168166.66666666666;-7604.919024263467
0.34400000000000025;-5971329270.0;-6002056274.0;-2351207.0;4871.107620865908;5957.913727127146;-100.36234308996791;-174766.8241097531;-176916.66666666666;2149.842556913569
0.34800000000000025;-5954592520.0;-5980759277.0;-2459702.0;4184.187147215057;5303.167722031348;-153.62453829837523;-171730.11841271273;-181250.0;9519.881587287273
0.35200000000000026;-5940484672.0;-5962379150.0;-2428426.0;3526.9618425147214;4550.1143738416995;-92.96945020583553;-164306.32617508387;-179750.0;15443.673824916117
0.35600000000000026;-5928843125.0;-5946789551.0;-2307494.0;2910.386666397247;3865.021027531773;-75.83815983471732;-154143.79402936855;-176500.0;22356.205970631436
0.36000000000000026;-5919486916.0;-5933781738.0;-2169905.0;2339.052278358883;3223.83342578673;-67.67737709568246;-142833.59700959103;-172750.0;29916.402990408984
0.36400000000000027;-5912201084.0;-5922932739.0;-2269007.0;1821.4579347786346;2684.536271776043;-133.2024379636082;-129398.58589506213;-167000.0;37601.414104937874
0.36800000000000027;-5906728242.0;-5914379883.0;-2273135.0;1368.2103389307117;2115.7912689326445;-114.99749796182164;-113311.89896198071;-150666.66666666666;37354.76770468594
0.3720000000000003;-5902785677.0;-5907722168.0;-2351709.0;985.6412363306005;1656.6109101082423;-152.92832573271698;-95642.27565002782;-140166.66666666666;44524.391016638845
0.3760000000000003;-5900087024.0;-5902756348.0;-2440795.0;674.6632163177662;1225.5507367888504;-152.81502176498907;-77744.50500320856;-126250.0;48505.49499679144
0.3800000000000003;-5898353595.0;-5899070435.0;-2668368.0;433.3571030851274;915.3176529747396;-210.83480671209804;-60326.52830815971;-112833.33333333333;52506.80502517362
0.3840000000000003;-5897387140.0;-5896472168.0;-2943390.0;241.6138546965829;636.3753013413847;-232.16745167632456;-47935.81209713612;-91250.0;43314.18790286388
0.3880000000000003;-5896942403.0;-5894917603.0;-3062964.0;111.18431224275584;384.5496073061004;-209.5796432116323;-32607.38561345677;-78416.66666666667;45809.2810532099
0.3920000000000003;-5896756209.0;-5894066162.0;-3150309.0;46.54834417929971;206.67467688918487;-204.66914221791234;-16158.99201586403;-64083.333333333336;47924.341317469305
0.3960000000000003;-5896701087.0;-5893862915.0;-3008270.0;13.78045834969605;47.343842943035064;-141.51864650015025;-8191.971457400916;-54666.666666666664;46474.69520926575
0.4000000000000003;-5896767845.0;-5893967285.0;-2768159.0;-16.68932748365235;-15.019393964707852;-117.13503021383025;-7617.446458337099;-42500.0;34882.5535416629
0.4040000000000003;-5896803496.0;-5894027710.0;-2700168.0;-8.912916496531304;-16.06514259013906;-144.05327372159473;1944.1027467802612;-26000.0;27944.10274678026
0.4080000000000003;-5896814121.0;-5894274902.0;-2506687.0;-2.6561714755998627;-65.01338906463981;-98.81539906773357;1564.1862552328603;-13500.0;15064.18625523286
0.4120000000000003;-5896811568.0;-5894637451.0;-2170049.0;0.6382871635284115;-88.81151007828116;-47.869209687243895;823.6146597820685;-6500.0;7323.614659782069
0.4160000000000003;-5896805352.0;-5894917603.0;-1895443.0;1.5539262411220909;-67.16398226853833;-47.94922844792917;228.90976939841983;-5416.666666666667;5645.576436065086
0.4200000000000003;-5896800442.0;-5895115356.0;-1693762.0;1.2275997119997615;-51.91334415584803;-48.730355561829604;-81.58163228058235;-1666.6666666666667;1585.0850343860843
0.4240000000000003;-5896798149.0;-5895379028.0;-1424413.0;0.573289573974395;-65.06303775878996;-18.982564442809178;-163.57753450634164;1833.3333333333333;-1996.910867839675
0.4280000000000003;-5896797884.0;-5895521851.0;-1277710.0;0.06618542669433136;-33.27619881524146;-42.41631314937476;-126.7760368200159;2500.0;-2626.776036820016
0.43200000000000033;-5896798573.0;-5895615234.0;-1182822.0;-0.17231371432927034;-25.248853827498852;-45.34440162087694;-59.62478525590043;2416.6666666666665;-2476.291451922567
0.43600000000000033;-5896799390.0;-5895664673.0;-1133486.0;-0.20411866123148045;-12.334302228141576;-55.70026221459951;-7.951236725552528;3333.3333333333335;-3341.284570058886
0.44000000000000034;-5896799933.0;-5895675659.0;-1123234.0;-0.13596037985616208;-1.255905425850302;-66.32166099706087;17.039570343829595;3833.3333333333335;-3816.293762989504
0.44400000000000034;-5896800125.0;-5895648193.0;-1151407.0;-0.04795088094929271;10.213299052618444;-79.47462766305692;22.002374726717342;2250.0;-2227.9976252732827
0.44800000000000034;-5896800039.0;-5895648193.0;-1151813.0;0.021440886310866984;1.4060514632053673;-70.61629681675859;17.347941815039924;1916.6666666666667;-1899.3187248516267
0.45200000000000035;-5896799793.0;-5895615234.0;-1184855.0;0.06150876899631745;6.426691043142229;-77.53894485320643;10.016970671362616;916.6666666666666;-906.649695995304
0.45600000000000035;-5896799503.0;-5895604248.0;-1195693.0;0.07260382409008556;2.400664910249412;-74.10532432683694;2.7737637734420275;333.3333333333333;-330.55956955989126
0.46000000000000035;-5896869104.0;-5895604248.0;-1195430.0;-17.400157326779155;0.26755449661239983;-71.92768148431448;-4368.19028771731;-333.3333333333333;-4034.8569543839767
0.46400000000000036;-5896890443.0;-5895626221.0;-1200879.0;-5.334924210990366;-4.812283007480204;-74.09559496298014;3016.3082789471973;-500.0;3516.3082789471973
0.46800000000000036;-5896916433.0;-5895675659.0;-1201498.0;-6.4974715913564145;-16.108547661889343;-68.49543379392736;-290.6368450915122;-1000.0;709.3631549084878
0.47200000000000036;-5896947658.0;-5895785522.0;-1115101.0;-7.806117767326279;-25.602116085588932;-47.17049472217535;-327.1615439924662;-1916.6666666666667;1589.5051226742005
0.47600000000000037;-5896984752.0;-5895900879.0;-1027782.0;-9.273517515216097;-31.723201115038247;-36.95323643641723;-366.8499369724545;-2000.0;1633.1500630275455
0.48000000000000037;-5897028537.0;-5896043701.0;-918481.0;-10.94625556434626;-40.95803948768973;-22.531071502845556;-418.1845122825405;-1916.6666666666667;1498.4821543841263
