Zeit[sec];Sollposition[°];Istposition[°];Positionsschleppfehler[°];Sollgeschwindigkeit[°/s];Istgeschwindigkeit[°/s];Geschwindigkeitsdifferenz[°/s];Sollbeschleunigung[°/s*s];Istbeschleunigung[°/s*s];Beschleunigungsdifferenz[°/s*s]
0.0;1081.0;-4833984.0;4832450.0;0.2536062866714532;37.08988983327946;427.70235734235655;-100.02050545583332;1000.0;-1100.0205054558332
0.004;1065.0;-4779053.0;4779507.0;-0.004052332127421696;15.531232528977613;443.7986730740255;-64.41465469971872;-2250.0;2185.5853453002815
0.008;645.0;-4691162.0;4692230.0;-0.10506512103139318;20.493210929936378;430.1146619708939;-25.25319722599287;-3333.3333333333335;3308.0801361073404
0.012;227.0;-4498901.0;4499799.0;-0.10441417317683217;47.51354574968341;384.4245656441831;0.16273696364025106;-916.6666666666666;916.8294036303068
0.016;-26.0;-4284668.0;4285149.0;-0.0635269284507363;51.9254929731925;359.3445958682394;10.221811181523966;2333.3333333333335;-2323.1115221518094
0.02;-116.0;-4092407.0;4092535.0;-0.022541494734529047;43.69010764463546;349.1050455217108;10.246358429051815;2916.6666666666665;-2906.420308237615
0.024;-106.0;-3938599.0;3938539.0;0.00251601840845381;40.42712502683834;337.6251025550824;6.264378285745714;500.0;-493.7356217142543
0.028;-60.0;-3828735.0;3828624.0;0.011472267883009599;25.17113165077309;342.3639256179042;2.2390623686389475;-1500.0;1502.239062368639
0.032;-18.0;-3762817.0;3762730.0;0.010536236247683907;13.857229745698126;347.37077046431955;-0.23400790883142292;-2500.0;2499.7659920911688
0.036000000000000004;5.0;-3652954.0;3652911.0;0.006036837032411733;28.12991387862851;322.56059078931236;-1.1248498038180437;-1833.3333333333333;1832.2084835295152
0.04000000000000001;12.0;-3482666.0;3482658.0;0.0018815977895167394;38.39508600565784;295.9488397736644;-1.0388098107237485;333.3333333333333;-334.3721431440571
0.04400000000000001;10.0;-3323364.0;3323372.0;-0.0005105445433943856;37.36340273453491;281.6847249787305;-0.5980355832277813;1500.0;-1500.5980355832278
0.048000000000000015;-937.0;-3142090.0;3142100.0;-0.23717197217902625;44.851760887693736;256.790796610143;-59.16535690890797;2000.0;-2059.165356908908
0.05200000000000002;-10345.0;-2993774.0;2993409.0;-2.3520458776184707;36.40945222526977;250.86348268842312;-528.7184763598611;250.0;-778.7184763598611
0.05600000000000002;-239287.0;-2872925.0;2868264.0;-57.23549048947591;27.416716541086;246.8623277161856;-13720.861152964359;-500.0;-13220.861152964359
0.060000000000000026;-717450.0;-2796021.0;2694959.0;-119.54061592429728;19.380712589971754;215.23526913692007;-15576.281358705344;-1583.3333333333333;-13992.94802537201
0.06400000000000003;-1594099.0;-2834473.0;2406943.0;-219.1623265006213;-8.20497083632581;157.65458231280073;-24905.427644081006;-3166.6666666666665;-21738.76097741434
0.06800000000000003;-2919964.0;-2960815.0;1898589.0;-331.4660601041272;-33.412778273434874;57.00332378919755;-28075.933400876478;-4416.666666666667;-23659.266734209814
0.07200000000000004;-4877024.0;-3279419.0;1164772.0;-489.2651613486441;-94.36446404580434;-56.922705122361265;-39449.77531112922;-5916.666666666667;-33533.10864446255
0.07600000000000004;-7725103.0;-4257202.0;569063.0;-712.0196437957969;-258.50467384795786;-80.23818659958033;-55688.62061178821;-13416.666666666666;-42271.953945121546
0.08000000000000004;-11728908.0;-5784302.0;-210474.0;-1000.9511103932264;-385.7229776921701;-211.14175529912717;-72232.86664935737;-25250.0;-46982.86664935736
0.08400000000000005;-17140668.0;-8212280.0;-1083581.0;-1352.9399824994978;-635.7412013624179;-293.55382833950546;-87997.21802656785;-35833.333333333336;-52163.88469323451
0.08800000000000005;-24183876.0;-12194824.0;-1656302.0;-1760.801854852648;-1013.8616768100112;-283.9595557351306;-101965.46808828754;-53750.0;-48215.46808828754
0.09200000000000005;-33052408.0;-17682495.0;-2218985.0;-2217.1329930724028;-1389.9752864388113;-335.6356808094572;-114082.78455493871;-72250.0;-41832.78455493871
0.09600000000000006;-43915380.0;-24993896.0;-2664946.0;-2715.7429073877634;-1863.836918319066;-331.3381030053599;-124652.47857884015;-93000.0;-31652.478578840146
0.10000000000000006;-56904762.0;-34447632.0;-2859811.0;-3247.3452302956116;-2378.768795549672;-307.923278505853;-132900.58072696207;-108666.66666666667;-24233.914060295392
0.10400000000000006;-72110898.0;-45933838.0;-3067979.0;-3801.533962112791;-2905.7281626944027;-312.3912009733358;-138547.18295429484;-119083.33333333333;-19463.84962096151
0.10800000000000007;-89594217.0;-59793091.0;-3064557.0;-4370.829548647495;-3485.4759528341233;-272.6790650672765;-142323.8966336761;-132250.0;-10073.8966336761
0.11200000000000007;-109392926.0;-75772705.0;-3180957.0;-4949.677001331388;-4002.7848133421494;-326.5906259876192;-144711.86317097317;-136583.33333333334;-8128.529837639831
0.11600000000000008;-131525206.0;-93922119.0;-3419535.0;-5533.069715360526;-4576.323902268097;-348.94926054976077;-145848.1785072845;-136750.0;-9098.178507284501
0.12000000000000008;-155992986.0;-114796143.0;-3255878.0;-6116.944563875692;-5242.3925711381935;-247.76312950152078;-145968.7121287916;-142166.66666666666;-3802.0454621249373
0.12400000000000008;-182787929.0;-138054199.0;-3042418.0;-6698.735421911479;-5840.095756425513;-213.12502464300178;-145447.71450894655;-148333.33333333334;2885.6188243867964
0.12800000000000009;-211897238.0;-163388672.0;-3084724.0;-7277.32697849709;-6354.973499459647;-285.35441145456025;-144647.8891464028;-153000.0;8352.110853597196
0.1320000000000001;-243307694.0;-190870972.0;-3301342.0;-7852.613687592516;-6894.870419700892;-346.78741509490646;-143821.6772738565;-143000.0;-821.6772738564941
0.1360000000000001;-277007790.0;-221006470.0;-3173961.0;-8425.02353013427;-7549.45829590201;-257.2709449947206;-143102.46063543833;-140166.66666666666;-2935.7939687716625
0.1400000000000001;-312988211.0;-253114014.0;-3371195.0;-8995.104905887476;-8022.012366632671;-377.8167790627522;-142520.34393830172;-142750.0;229.6560616982788
0.1440000000000001;-351241466.0;-287286987.0;-3789016.0;-9563.313321301886;-8576.400449623481;-435.0430105542964;-142052.1038536026;-139000.0;-3052.1038536026026
0.1480000000000001;-391761492.0;-324475708.0;-3468498.0;-10130.005856166086;-9297.005441731186;-253.02071005055768;-141673.13371604995;-144083.33333333334;2410.1996172833824
0.1520000000000001;-434543331.0;-363367310.0;-3715573.0;-10695.459312361652;-9728.287932838322;-413.07578578229004;-141363.36404889153;-143916.66666666666;2553.302617775131
0.1560000000000001;-479570389.0;-404577026.0;-3909375.0;-11256.764021220797;-10366.73843364328;-359.44041862262384;-140326.17721478618;-142333.33333333334;2007.1561185471583
0.16000000000000011;-526790601.0;-448461914.0;-3683267.0;-11805.05245760695;-10964.043604601275;-304.24468259205423;-137072.10909653804;-145333.33333333334;8261.2242367953
0.16400000000000012;-576112678.0;-494346313.0;-3682322.0;-12330.518703783677;-11508.571785073336;-315.79405138927723;-131366.56154418187;-139833.33333333334;8466.771789151466
0.16800000000000012;-627399313.0;-542878418.0;-3190935.0;-12821.657959491564;-12124.063541113394;-192.44520513558018;-122784.81392697176;-154083.33333333334;31298.519406361578
0.17200000000000013;-680431969.0;-592750854.0;-3407177.0;-13258.1633920677;-12514.093088107884;-335.16474472690606;-109126.35814403393;-134166.66666666666;25040.308522632728
0.17600000000000013;-734899176.0;-644974365.0;-3151060.0;-13616.801175819535;-13081.389822873303;-212.9597111608873;-89659.44593795894;-129750.0;40090.55406204106
0.18000000000000013;-790415580.0;-699191895.0;-2524732.0;-13879.100432229356;-13534.975994321865;-105.19829826905152;-65574.8141024551;-126083.33333333333;60508.519230878235
0.18400000000000014;-846517341.0;-753348999.0;-3242420.0;-14025.439472210566;-13559.01548261975;-470.9541766762286;-36584.75999530265;-105583.33333333333;68998.57333803068
0.18800000000000014;-902666911.0;-809170532.0;-3163228.0;-14037.391919926276;-13982.439852248945;-256.81470107992754;-2988.1119289275375;-78916.66666666667;75928.55473773913
0.19200000000000014;-958409023.0;-866008301.0;-2442746.0;-13935.527168067376;-14198.89196555578;-64.93262610469355;25466.187964725123;-65250.0;90716.18796472512
0.19600000000000015;-1013170348.0;-922093506.0;-2345280.0;-13690.330764765507;-13977.896626333477;-244.18435724416122;61299.10082546712;-49333.333333333336;110632.43415880046
0.20000000000000015;-1066428739.0;-977711792.0;-2082627.0;-13314.596992022922;-13900.541008406612;-138.2986727257994;93933.4431856464;-18250.0;112183.4431856464
0.20400000000000015;-1117721023.0;-1032462158.0;-1503443.0;-12823.07057921481;-13655.208502315481;-31.91691807337702;122881.60320202814;25666.666666666668;97214.93653536148
0.20800000000000016;-1166675724.0;-1084570313.0;-1882954.0;-12238.67459500204;-12983.473833741224;-319.2057647781421;146098.99605319242;64500.0;81598.99605319242
0.21200000000000016;-1213027540.0;-1134497681.0;-2332575.0;-11587.953360155212;-12499.617380900721;-318.55655933601884;162680.30871170686;102416.66666666667;60263.642045040186
0.21600000000000016;-1256599563.0;-1182958374.0;-1808277.0;-10893.005194354968;-12049.60526920374;-108.08731092084781;173737.04145006105;124000.0;49737.04145006104
0.22000000000000017;-1297285798.0;-1228732910.0;-1298664.0;-10171.558337443403;-11411.369369233727;-29.532465482225234;180361.7142278913;134000.0;46361.714227891294
0.22400000000000017;-1335036798.0;-1271480713.0;-995002.0;-9437.749546503199;-10652.845965247187;-53.70897685846103;183452.19773505096;137416.66666666666;46035.5310683843
0.22800000000000017;-1369842073.0;-1311509399.0;-505685.0;-8701.318270550477;-9977.48480426561;44.097198990446486;184107.8189881805;166583.33333333334;17524.485654847154
0.23200000000000018;-1401713183.0;-1348060913.0;-554435.0;-7967.777225349257;-9086.772138870137;-116.51933434088278;183385.26130030505;182166.66666666666;1218.5946336383895
0.23600000000000018;-1430670947.0;-1382019653.0;-254880.0;-7239.440614849622;-8474.353926716687;35.0897120021491;182084.15262490872;190666.66666666666;-8582.514041757946
0.24000000000000019;-1456739458.0;-1413165894.0;158155.0;-6517.127416497742;-7724.304059462071;56.18570785464726;180578.29958796993;180916.66666666666;-338.3670786967341
0.2440000000000002;-1479946678.0;-1441082153.0;245123.0;-5801.804878030846;-6965.983100306083;32.19259313213115;178830.63461672395;186166.66666666666;-7336.032049942702
0.2480000000000002;-1500325575.0;-1466504517.0;716504.0;-5094.723939195898;-6332.158015945117;163.1968891382685;176770.234708737;176583.33333333334;186.90137540366413
0.25200000000000017;-1517924916.0;-1489235229.0;1344617.0;-4399.834982986712;-5634.6723666474;238.10592172613724;173722.23905229656;177666.66666666666;-3944.4276143700845
0.25600000000000017;-1532833753.0;-1508527222.0;1343191.0;-3727.209136606818;-4816.262146514991;121.85410444011086;168156.46159497352;176916.66666666666;-8760.20507169315
0.2600000000000002;-1545191279.0;-1525347290.0;1614374.0;-3089.381272757053;-4184.0639922352075;201.82293658148637;159456.96596244123;179416.66666666666;-19959.70070422541
0.2640000000000002;-1555178672.0;-1539580078.0;1934116.0;-2496.8481304424686;-3544.504857526228;251.91847180686227;148133.28557864612;179833.33333333334;-31700.047754687235
0.2680000000000002;-1563014724.0;-1551423340.0;2344623.0;-1959.012960246454;-2947.683797504438;314.5791927050004;134458.79254900364;164750.0;-30291.207450996353
0.2720000000000002;-1568952935.0;-1561008911.0;2781887.0;-1484.5525515855527;-2376.813142841192;356.7975318261738;118615.10216522533;152250.0;-33634.897834774674
0.2760000000000002;-1573270392.0;-1568375244.0;3052026.0;-1079.364420555016;-1820.903555146777;339.8498515401311;101297.03275763415;146500.0;-45202.96724236584
0.2800000000000002;-1576253681.0;-1573665161.0;3035216.0;-745.8221282214474;-1307.3096947085812;272.00860055510793;83385.57308339216;140000.0;-56614.42691660784
0.2840000000000002;-1578192003.0;-1577592773.0;3164851.0;-484.58033719742093;-978.6904128396204;333.0218463912921;65310.44775600662;128500.0;-63189.55224399338
0.2880000000000002;-1579339386.0;-1580289917.0;3285202.0;-286.8458839772568;-659.6355483628028;330.8167510102394;49433.613305041035;106750.0;-57316.386694958965
0.2920000000000002;-1579862113.0;-1581871948.0;3236383.0;-130.68182734335463;-397.7753839550251;300.7557222393175;39041.01415847554;87500.0;-48458.98584152446
0.2960000000000002;-1579979712.0;-1582866211.0;3326295.0;-29.39972990667224;-252.10390869093874;345.34035279380504;25320.5243591706;68166.66666666667;-42846.14230749608
0.3000000000000002;-1579971286.0;-1583283691.0;3378015.0;2.1066186678887164;-89.89418388367164;322.7435418718545;7876.5871436402385;53833.333333333336;-45956.7461896931
0.3040000000000002;-1579965640.0;-1583162842.0;3187161.0;1.411533738264386;10.85883154326491;277.6072196835298;-173.77123240608262;41916.666666666664;-42090.43789907275
0.3080000000000002;-1580003817.0;-1583102417.0;3133321.0;-9.544300721359846;15.747508535848931;286.6977283069525;-2738.9586149060583;27583.333333333332;-30322.29194823939
0.3120000000000002;-1579988794.0;-1582992554.0;3011744.0;3.75566615713988;24.520629972372205;261.6785833508431;3324.9917196249316;17000.0;-13675.008280375068
0.3160000000000002;-1579988064.0;-1582921143.0;2923507.0;0.1824998076543111;12.450728636098095;263.9990660404361;-893.2915873713922;3333.3333333333335;-4226.624920704726
0.32000000000000023;-1579993036.0;-1582904663.0;2916071.0;-1.2428488368916817;9.583136427751743;272.62071160910443;-356.3371611364982;-1250.0;893.6628388635019
0.32400000000000023;-1579998098.0;-1582877197.0;2887158.0;-1.2656508849921388;5.662788273974322;271.14268758879484;-5.700512025114291;-1083.3333333333333;1077.632821308219
0.32800000000000024;-1580001059.0;-1582827759.0;2832745.0;-0.7401779472623481;12.481385766543449;258.2185963929859;131.36823443244768;-1416.6666666666667;1548.0349010991144
0.33200000000000024;-1580001930.0;-1582750854.0;2751612.0;-0.21768880343337266;21.950088814285586;241.1474877157468;130.62228595724386;750.0;-619.3777140427561
0.33600000000000024;-1580001575.0;-1582668457.0;2667070.0;0.08872261895262122;23.241865172757766;232.2607567186211;76.60285559649847;1000.0;-923.3971444035016
0.34000000000000025;-1580000844.0;-1582586060.0;2584277.0;0.18262784283376834;23.603831635302864;224.3874974427283;23.47630597028678;1083.3333333333333;-1059.8570273630464
0.34400000000000025;-1580000243.0;-1582542114.0;2540828.0;0.1503160544713148;16.341726912858896;227.70192028067538;-8.077947090613387;0.0;-8.077947090613387
0.34800000000000025;-1579999941.0;-1582492676.0;2492067.0;0.07543978696333158;13.68938757561054;225.71831092211272;-18.719066876995804;-583.3333333333334;564.6142664563375
0.35200000000000026;-1579999910.0;-1582415771.0;2415645.0;0.007769890972227597;19.010617026923224;213.0121210843086;-16.917473997775996;-416.6666666666667;399.7491926688907
0.35600000000000026;-1580000046.0;-1582333374.0;2333444.0;-0.03387278549830408;20.79184660009388;203.26782585859047;-10.410669117632919;416.6666666666667;-427.0773357842996
0.36000000000000026;-1580000238.0;-1582234497.0;2234533.0;-0.04808774647693693;19.571119104046375;194.93570461966183;-3.553740244658212;1083.3333333333333;-1086.8870735779915
0.36400000000000027;-1580000402.0;-1582152100.0;2151979.0;-0.04095702201246323;20.46367957969755;186.0870396249421;1.782681116118425;333.3333333333333;-331.5506522172149
0.36800000000000027;-1580000489.0;-1582042236.0;2041934.0;-0.021640889574758078;24.546614461652936;171.43387230349106;4.8290331094262875;500.0;-495.1709668905737
0.3720000000000003;-1580000487.0;-1581948853.0;1948417.0;0.000296006102910391;21.542385590968653;165.47230615014857;5.484223919417118;-166.66666666666666;172.15089058608376
0.3760000000000003;-1580000417.0;-1581811523.0;1811036.0;0.017549024856552284;32.027106353005394;141.8192932133284;4.313254688410473;666.6666666666666;-662.3534119782562
0.3800000000000003;-1580000311.0;-1581696167.0;1695709.0;0.026610542961099912;31.540126888532193;131.2549451334603;2.265379526136907;500.0;-497.7346204738631
0.3840000000000003;-1580000200.0;-1581619263.0;1618889.0;0.027556180458099478;24.924056577920915;130.51032810536688;0.23640937424989142;-250.0;250.2364093742499
0.3880000000000003;-1580000109.0;-1581525879.0;1525612.0;0.022792330221422914;23.43401793050766;123.05166644810329;-1.1909625591691408;-416.6666666666667;415.47570410749756
0.3920000000000003;-1580000047.0;-1581454468.0;1454304.0;0.015574054893196491;19.620587539920585;120.01825830750553;-1.8045688320566058;-916.6666666666666;914.86209783461
0.3960000000000003;-1580000012.0;-1581377563.0;1377479.0;0.008684863417503519;20.04392611116357;112.21401619889402;-1.722297868923243;-250.0;248.27770213107675
0.4000000000000003;-1579999998.0;-1581311646.0;1311614.0;0.003662960224836238;10.741895204565488;115.18593368813654;-1.2554757981668203;-166.66666666666666;165.41119086849983
0.4040000000000003;-1579999994.0;-1581273193.0;1273187.0;0.000798255255597739;10.638515087620355;111.59417103601646;-0.7161762423096247;-1000.0;999.2838237576904
0.4080000000000003;-1579999996.0;-1581218262.0;1218266.0;-0.00038206879394486347;11.471832093856298;105.48426048084602;-0.29508101238565065;-416.6666666666667;416.37158565428103
0.4120000000000003;-1579999998.0;-1581179810.0;1179815.0;-0.0005791289053344544;8.02648266227357;105.23610439833152;-0.049265027847397724;-750.0;749.9507349721526
0.4160000000000003;-1580000000.0;-1581141357.0;1141360.0;-0.0003788203926203645;8.932656464747154;100.63745025117494;0.05007712817852247;0.0;0.05007712817852247
0.4200000000000003;-1580000000.0;-1581069946.0;1069947.0;-0.00013070272167382032;23.359806909882465;79.35460653505191;0.06202941773663604;-250.0;250.06202941773662
0.4240000000000003;-1580000000.0;-1580993042.0;993042.0;2.593890512892333e-05;19.15330696945172;76.17844341126896;0.039160406700685914;833.3333333333334;-833.2941729266327
0.4280000000000003;-1580000000.0;-1580921631.0;921631.0;7.974039110006178e-05;24.916103579812685;63.5604023696058;0.013450371492784613;500.0;-499.9865496285072
0.43200000000000033;-1580000000.0;-1580921631.0;921631.0;6.986239420408886e-05;1.6834850098546594;86.79313734267411;-0.0024694992239932293;166.66666666666666;-166.66913616589065
0.43600000000000033;-1579999999.0;-1580872192.0;872192.0;3.811313914935359e-05;10.34830112842098;73.38220638025012;-0.007937313763683817;-1333.3333333333333;1333.3253960195696
0.44000000000000034;-1579999999.0;-1580811768.0;811769.0;1.0115755274199462e-05;13.407312782445922;64.52256854975899;-0.006999345968788533;-83.33333333333333;83.32633398736454
0.44400000000000034;-1579999999.0;-1580762329.0;762330.0;-5.304116168842934e-06;17.64894312636368;55.534764072317884;-0.003854967860760599;-166.66666666666666;166.6628116988059
0.44800000000000034;-1579999999.0;-1580712891.0;712892.0;-9.565047823231948e-06;7.749568693935871;60.68806747214845;-0.0010652329135972533;1000.0;-1000.0010652329136
0.45200000000000035;-1579999999.0;-1580652466.0;652467.0;-7.632515060711632e-06;18.010405439188705;44.62641965765012;0.000483133190630079;-416.6666666666667;416.6671497998573
0.45600000000000035;-1580000000.0;-1580641479.0;641480.0;-3.937052606004331e-06;2.8734194763330745;58.70865174981962;0.0009238656136768251;166.66666666666666;-166.66574280105297
0.46000000000000035;-1580000000.0;-1580635986.0;635987.0;-9.550537338325652e-07;0.7352391896443442;60.31950663172726;0.0007454997180429415;-1416.6666666666667;1416.6674121663848
0.46400000000000036;-1580000000.0;-1580586548.0;586548.0;5.927941387909706e-07;5.786316834184341;50.52228838944027;0.0003869619681558839;83.33333333333333;-83.33294637136517
0.46800000000000036;-1580000000.0;-1580548096.0;548096.0;9.718255930099723e-07;14.567717134901322;38.04949850626345;9.475786355475043e-05;-583.3333333333334;583.3334280911969
0.47200000000000036;-1580000000.0;-1580515137.0;515137.0;7.408513375967688e-07;12.905486671818421;36.54766606218153;-5.774356385330088e-05;666.6666666666666;-666.6667244102305
