Zeit[sec];Sollposition[°];Istposition[°];Positionsschleppfehler[°];Sollgeschwindigkeit[°/s];Istgeschwindigkeit[°/s];Geschwindigkeitsdifferenz[°/s];Sollbeschleunigung[°/s*s];Istbeschleunigung[°/s*s];Beschleunigungsdifferenz[°/s*s]
0.0;0.0;-27466.0;27466.0;-0.0;0.1380708139929222;1.0429671860070777;0.0;0.0;0.0
0.004;0.0;-32959.0;32959.0;-0.0;-1.398703230186877;2.815940230186877;0.0;0.0;0.0
0.008;0.0;-27466.0;27466.0;-0.0;2.417326046973755;-1.2362880469737552;0.0;0.0;0.0
0.012;0.0;-21973.0;21973.0;-0.0;3.2704896841744477;-2.3256506841744478;0.0;0.0;0.0
0.016;0.0;-32959.0;32959.0;-0.0;-1.7696482138723044;3.1868852138723045;0.0;0.0;0.0
0.02;0.0;-27466.0;27466.0;-0.0;1.2561412575427442;-0.07510325754274416;0.0;0.0;0.0
0.024;0.0;-27466.0;27466.0;-0.0;0.4093477870312214;0.7716902129687786;0.0;0.0;0.0
0.028;0.0;-38452.0;38452.0;-0.0;-4.419117021044027;6.072553021044026;0.0;0.0;0.0
0.032;0.0;-27466.0;27466.0;-0.0;0.5922939360923729;0.5887440639076271;0.0;0.0;0.0
0.036000000000000004;-3234.0;-27466.0;27466.0;-0.8086186799974566;0.8839697681594145;0.2970682318405855;-202.15466999936416;0.0;-202.15466999936416
0.04000000000000001;-35468.0;-27466.0;26184.0;-8.05842924602674;0.8511574790196649;-0.0458501509717818;-1812.452641507321;0.0;-1812.452641507321
0.04400000000000001;-193903.0;-27466.0;11471.0;-39.608813821520044;0.3839366434564181;-3.5690009345162816;-7887.596143873326;0.0;-7887.596143873326
0.048000000000000015;-717350.0;-27466.0;-70630.0;-130.86186987131072;0.2067841151795778;-23.76905851184509;-22813.264012447667;0.0;-22813.264012447667
0.05200000000000002;-2043856.0;-43945.0;-356568.0;-331.6263993801082;-4.737999988947127;-86.19878319269212;-50191.13237719936;-83.33333333333333;-50107.799043866034
0.05600000000000002;-4814033.0;-82397.0;-1157825.0;-692.5442363445886;-10.158888295656014;-249.5547697048275;-90229.45924112012;-583.3333333333334;-89646.12590778677
0.060000000000000026;-9804662.0;-296631.0;-2837784.0;-1247.6571027516804;-60.65040071285116;-534.9226390173803;-138778.21660177296;-2166.6666666666665;-136611.54993510628
0.06400000000000003;-17831666.0;-1131592.0;-5644916.0;-2006.750870104684;-244.0135248636267;-909.2409244218726;-189773.4418382509;-9333.333333333334;-180440.10850491756
0.06800000000000003;-29679781.0;-4542847.0;-8415155.0;-2962.0287132145595;-920.3435423926762;-986.8814288227513;-238819.46077746886;-40416.666666666664;-198402.7941108022
0.07200000000000004;-46067528.0;-12046509.0;-10435716.0;-4096.936433348628;-1930.6994671864136;-899.0921144519534;-283726.9300335172;-111666.66666666667;-172060.26336685053
0.07600000000000004;-67607190.0;-24136963.0;-11970881.0;-5384.915409935743;-3086.3251907862573;-834.8272524163622;-321994.74414677866;-195000.0;-126994.74414677866
0.08000000000000004;-94743917.0;-41489868.0;-13021777.0;-6784.181243634358;-4412.2542631513315;-748.6322708199168;-349816.4584246538;-266000.0;-83816.45842465377
0.08400000000000005;-127709106.0;-64396362.0;-13843907.0;-8241.296917179525;-5813.7744483505285;-713.6692503021222;-364278.9183862917;-306416.6666666667;-57862.25171962502
0.08800000000000005;-166506669.0;-93619995.0;-14035100.0;-9699.390317578222;-7397.214695821005;-560.0006216972861;-364523.3500996742;-339416.6666666667;-25106.683433007503
0.09200000000000005;-210917930.0;-129534302.0;-13364276.0;-11102.814643820588;-9038.359825916286;-347.17442266226135;-350856.0815605915;-374500.0;23643.91843940848
0.09600000000000006;-260527565.0;-171447144.0;-12440567.0;-12402.40818169407;-10550.767075552028;-231.45992385823047;-324898.38446837076;-392666.6666666667;67768.28219829593
0.10000000000000006;-314778605.0;-219331055.0;-10996098.0;-13562.759429748698;-12009.624878850558;-73.06732117626052;-290087.8120136567;-394916.6666666667;104828.85465300996
0.10400000000000006;-373039869.0;-272702637.0;-9043936.0;-14565.315246227558;-13377.695833189333;133.95207001583367;-250638.95411971497;-375750.0;125111.04588028502
0.10800000000000007;-434664024.0;-330227051.0;-7333357.0;-15406.038055427478;-14404.54411027502;135.75154632115118;-210180.7022999801;-345833.3333333333;135652.63103335322
0.11200000000000007;-499032559.0;-391470337.0;-5661172.0;-16092.132904110904;-15349.275646434831;213.0708971405802;-171523.71217085648;-299583.3333333333;128059.62116247685
0.11600000000000008;-565589730.0;-456042480.0;-3781583.0;-16639.29198133409;-16196.041233650523;360.2953321622281;-136789.7693057962;-254333.33333333334;117543.56402753714
0.12000000000000008;-633858363.0;-523509521.0;-1534757.0;-17067.157411902313;-16857.024615351198;485.97722248588434;-106966.35764205622;-220750.0;113783.64235794378
0.12400000000000008;-703435099.0;-592229004.0;-38189.0;-17394.183415677115;-17193.0731666169;385.7031106779723;-81756.5009437003;-181666.66666666666;99910.16572296635
0.12800000000000009;-773974795.0;-661766968.0;722528.0;-17634.92305336553;-17391.778880376747;228.5364957662714;-60184.90942210428;-129583.33333333333;69398.42391122904
0.1320000000000001;-845176010.0;-732167358.0;1172048.0;-17800.302838494517;-17621.2252587739;183.90657030104558;-41344.94628224638;-77916.66666666667;36571.72038442029
0.1360000000000001;-916779859.0;-803040161.0;1248515.0;-17900.961492639202;-17709.8456348458;64.44880955034023;-25164.663536171247;-53500.0;28335.336463828753
0.1400000000000001;-988584101.0;-874819336.0;1670713.0;-17951.0597106747;-17942.082825261456;174.6800843685378;-12524.554508874644;-43833.333333333336;31308.77882445869
0.1440000000000001;-1060455112.0;-946571045.0;1741480.0;-17967.75182475557;-17923.259300826983;77.90808432299673;-4173.0285202174855;-39666.666666666664;35493.63814644918
0.1480000000000001;-1132322952.0;-1018641357.0;1982251.0;-17966.959144408534;-18026.758300789217;154.6107649420228;198.17008675909165;-23000.0;23198.17008675909
0.1520000000000001;-1204163312.0;-1090541382.0;2012914.0;-17960.089096634696;-17953.227625025254;72.44319299759445;1717.5119434596127;-16916.666666666668;18634.17861012628
0.1560000000000001;-1275977047.0;-1162430420.0;2044989.0;-17953.43291566762;-17975.93868571035;99.63329028823864;1664.0452417686902;916.6666666666666;747.3785751020235
0.16000000000000011;-1347774150.0;-1234088745.0;1873349.0;-17949.274967802106;-17912.807721445148;35.87144937489211;1039.4869663787176;583.3333333333334;456.15363304538425
0.16400000000000012;-1419564429.0;-1305510864.0;1488171.0;-17947.56894142972;-17830.043078804596;-57.78892356263168;426.50659309674666;10750.0;-10323.493406903253
0.16800000000000012;-1491353997.0;-1376400146.0;582958.0;-17947.390926458058;-17751.82834329316;-171.727380684737;44.503742915367184;16083.333333333334;-16038.829590417967
0.17200000000000013;-1563145286.0;-1447943115.0;335891.0;-17947.821420450935;-17857.17058377041;-75.89446075281012;-107.62349821925454;10833.333333333334;-10940.956831552588
0.17600000000000013;-1634938438.0;-1519711304.0;313825.0;-17948.28728448919;-17989.13305011952;55.064871463280724;-116.46600956373732;1333.3333333333333;-1449.7993428970706
0.18000000000000013;-1706732701.0;-1592061768.0;872272.0;-17948.564932675108;-18023.447115711402;112.9512058741675;-69.41204647955601;-26000.0;25930.587953520444
0.18400000000000014;-1778527301.0;-1663824463.0;841385.0;-17948.64910171866;-17973.25539905594;61.04031607140496;-21.04226088795258;-12666.666666666666;12645.624405778713
0.18800000000000014;-1850321779.0;-1735773926.0;996458.0;-17948.61862236811;-17950.622200707287;44.87321716639781;7.619837637321325;-9583.333333333334;9590.953170970655
0.19200000000000014;-1922115992.0;-1807487183.0;915165.0;-17948.552311854317;-17933.846356887152;24.56192793273658;16.577628448430914;11416.666666666666;-11400.089038218235
0.19600000000000015;-1993909982.0;-1878777466.0;411074.0;-17948.496786454067;-17825.672413142835;-105.24391473259675;13.881350062547426;7416.666666666667;-7402.7853166041195
0.20000000000000015;-2065703853.0;-1950413818.0;253300.0;-17948.4669374659;-17925.789545217227;-11.849240221643413;7.462247041985393;12333.333333333334;-12325.871086291349
0.20400000000000015;-2137497534.0;-2021841431.0;-113031.0;-17948.41941310769;-17859.36543823402;-93.98017190675455;11.881089551934565;2833.3333333333335;-2821.452243781399
0.20800000000000016;-2209290052.0;-2094356689.0;608430.0;-17948.128498874452;-18121.085049829973;198.79927013312772;72.72855830979097;-7416.666666666667;7489.395224976458
0.21200000000000016;-2281078324.0;-2165949097.0;407617.0;-17947.06707124039;-17873.991679789895;-56.785137832881446;265.35690851505933;-17500.0;17765.35690851506
0.21600000000000016;-2352854319.0;-2237695313.0;362992.0;-17943.99794313546;-17935.38062781194;3.279919834010798;767.2820262332607;1583.3333333333333;-816.0513071000726
0.22000000000000017;-2424596338.0;-2309331665.0;215915.0;-17935.503958313522;-17927.37042223888;-9.201661965566018;2123.496205484116;4500.0;-2376.503794515884
0.22400000000000017;-2496254680.0;-2380775757.0;-102589.0;-17914.58469935693;-17821.61136086482;-123.44816017974881;5229.8147391484235;11166.666666666666;-5936.8519275182425
0.22800000000000017;-2567738783.0;-2452225342.0;-362046.0;-17871.024902166148;-17884.066712368014;-58.7608340749357;10889.949297695239;5500.0;5389.949297695239
0.23200000000000018;-2638906509.0;-2524042969.0;-134168.0;-17791.9305466734;-17931.115687580303;27.90996940475452;19773.58887318678;-916.6666666666666;20690.25553985345
0.23600000000000018;-2709553166.0;-2596003418.0;466596.0;-17661.663530334885;-18003.81300003594;183.95616878671353;32566.754084628883;-3000.0;35566.75408462888
0.24000000000000019;-2779406595.0;-2666975098.0;475292.0;-17463.35627788049;-17703.564547868213;-16.74304973830658;49576.81311359829;-7750.0;57326.81311359829
0.2440000000000002;-2848131498.0;-2737045898.0;210884.0;-17181.22508052828;-17560.07753311896;-14.655541467433068;70532.79933805333;29250.0;41282.79933805334
0.2480000000000002;-2915337794.0;-2806633301.0;387653.0;-16801.573246894968;-17367.55504734236;31.566503354715678;94912.95840832754;38583.333333333336;56329.625074994205
0.25200000000000017;-2980592818.0;-2875177002.0;801943.0;-16313.755012651662;-17079.53894547073;81.67032143368488;121954.55856082663;53166.666666666664;68787.89189415995
0.25600000000000017;-3043441951.0;-2941501465.0;684861.0;-15712.282596431518;-16582.7767689694;1.8403303292943747;150368.10405503592;61416.666666666664;88951.43738836926
0.2600000000000002;-3103434339.0;-3006139526.0;1010362.0;-14998.096319380948;-16083.961860454843;49.26851886168879;178546.56926264262;91416.66666666667;87129.90259597593
0.2640000000000002;-3160144421.0;-3067783813.0;924074.0;-14177.519683808885;-15413.385783588088;20.477816407777937;205144.15889301564;126750.0;78394.15889301563
0.2680000000000002;-3213188047.0;-3127060547.0;1493064.0;-13260.905968036865;-14772.709145580053;159.97570747641294;229153.4289430051;143250.0;85903.42894300511
0.2720000000000002;-3262235689.0;-3182645874.0;1802770.0;-12261.909850121017;-13854.183471922208;112.79784810356614;249749.0294789618;169833.33333333334;79915.69614562846
0.2760000000000002;-3307019141.0;-3233984985.0;1661117.0;-11195.862506740386;-12788.27974845712;-10.482620631304599;266511.83584515774;199166.66666666666;67345.1691784911
0.2800000000000002;-3347332652.0;-3281984253.0;2280014.0;-10078.377422519865;-11943.687587291097;196.63596095234243;279371.27105513035;227750.0;51621.27105513036
0.2840000000000002;-3383033587.0;-3325133057.0;2392642.0;-8925.233163140061;-10748.620463249339;92.46056654533277;288286.0648449509;247333.33333333334;40952.7315116176
0.2880000000000002;-3414045072.0;-3363898315.0;2647012.0;-7752.871021788697;-9633.279116288692;119.37912656851222;293090.53533784096;261500.0;31590.53533784095
0.2920000000000002;-3440371304.0;-3397873535.0;2753564.0;-6581.557489452579;-8445.721346051889;96.95800115440034;292828.3830840296;276250.0;16578.38308402961
0.2960000000000002;-3462128114.0;-3427283936.0;2982632.0;-5439.202293942615;-7274.710703224607;107.63106181124567;285588.7988774909;289333.3333333333;-3744.5344558423694
0.3000000000000002;-3479563428.0;-3451838379.0;2995095.0;-4358.828321226502;-6118.921191794254;112.21560783290715;270093.4931790282;293750.0;-23656.5068209718
0.3040000000000002;-3493048229.0;-3472069702.0;3156240.0;-3371.200189333859;-5010.770215022219;128.94415294452847;246907.03297316088;290416.6666666667;-43509.633693505806
0.3080000000000002;-3503047498.0;-3488461304.0;3653523.0;-2499.8171854788643;-4066.179082937144;249.70105707015273;217845.75096374864;281250.0;-63404.24903625137
0.3120000000000002;-3510085359.0;-3500765991.0;3832221.0;-1759.4649321784116;-3032.16013410504;165.44830985494764;185088.06332511318;259583.33333333334;-74495.27000822016
0.3160000000000002;-3514710555.0;-3509291382.0;3512072.0;-1156.299148595295;-2104.9881289844457;44.62238014703826;150791.44589577912;251416.66666666666;-100625.22077088752
0.32000000000000023;-3517469540.0;-3514943848.0;3065909.0;-689.7461459255566;-1405.0077839086018;12.184745971355824;116638.25066743462;233666.66666666666;-117028.41599923203
0.32400000000000023;-3518889431.0;-3518745117.0;2967768.0;-354.9727693663792;-943.8500535775833;96.61173013699465;83693.34413979434;202250.0;-118556.65586020566
0.32800000000000024;-3519453741.0;-3520969849.0;2953510.0;-141.07737940717382;-543.0139217502642;110.26740979639993;53473.84748980135;152166.66666666666;-98692.8191768653
0.33200000000000024;-3519560259.0;-3521958618.0;2853767.0;-26.629443871493887;-234.97323069478014;85.55705957850782;28611.983883919984;112500.0;-83888.01611608002
0.33600000000000024;-3519485587.0;-3521969604.0;2476937.0;18.66786383375723;-19.204868023836987;28.759304507034688;11324.326926312779;87833.33333333333;-76509.00640702056
0.34000000000000025;-3519383817.0;-3521958618.0;2428590.0;25.442485602965835;5.540755923287943;89.54825156764414;1693.655442302151;62500.0;-60806.34455769785
0.34400000000000025;-3519315878.0;-3521947632.0;2501959.0;16.984736675846605;6.67211633025296;122.00060226922069;-2114.4372317798075;32833.333333333336;-34947.77056511314
0.34800000000000025;-3519288765.0;-3521914673.0;2557197.0;6.778395570090789;4.333042997065932;127.67585325921338;-2551.5852764389538;9166.666666666666;-11718.25194310562
0.35200000000000026;-3519288100.0;-3521903687.0;2598162.0;0.16613262374437537;2.6037998534068465;122.10480517071893;-1653.0657365866034;83.33333333333333;-1736.399069919937
0.35600000000000026;-3519297647.0;-3521909180.0;2620521.0;-2.386728926142329;0.007270686576142907;116.8916717218251;-638.2153874716761;-333.3333333333333;-304.8820541383427
0.36000000000000026;-3519307071.0;-3521887207.0;2595318.0;-2.356077668120225;6.576949071161449;104.21443156472039;7.662814505525972;-583.3333333333334;590.9961478388593
0.36400000000000027;-3519312466.0;-3521859741.0;2558414.0;-1.3485620522255604;10.595723009869456;97.05646098203648;251.87890397366613;83.33333333333333;168.5455706403328
0.36800000000000027;-3519313972.0;-3521837769.0;2528614.0;-0.3765931691251357;5.794764178188518;100.97884475575162;242.99222077510618;583.3333333333334;-340.3411125582272
0.3720000000000003;-3519313246.0;-3521832275.0;2519243.0;0.18143458763259812;5.010997967198491;102.34735604391216;139.50693918943344;0.0;139.50693918943344
0.3760000000000003;-3519311869.0;-3521793823.0;2480149.0;0.34424892185432177;8.829570919405668;97.65579706766785;40.70358355543091;83.33333333333333;-42.62974977790242
0.3800000000000003;-3519310761.0;-3521766357.0;2453654.0;0.2769939535162247;8.988589752281085;96.76125048099775;-16.813742084524268;0.0;-16.813742084524268
0.3840000000000003;-3519310221.0;-3521711426.0;2399989.0;0.13496662520392483;14.181086396481842;89.33506999104677;-35.506832078074964;750.0;-785.5068320780749
0.3880000000000003;-3519310187.0;-3521640015.0;2329463.0;0.008682162319175386;15.586253013590351;84.80173239552708;-31.57111572118736;916.6666666666666;-948.2377823878539
0.3920000000000003;-3519310460.0;-3521497192.0;2186982.0;-0.06844293688346546;31.236278514903038;62.88967648532356;-19.281274800660213;1666.6666666666667;-1685.947941467327
0.3960000000000003;-3519310837.0;-3521414795.0;2104500.0;-0.09421277103193856;23.162272816378625;67.31007039721962;-6.442458537118275;1250.0;-1256.4424585371182
0.4000000000000003;-3519311156.0;-3521288452.0;1977844.0;-0.07968806189130216;38.33803590779566;46.63104772360714;3.6311772851591004;416.6666666666667;-413.0354893815076
0.4040000000000003;-3519311323.0;-3521024780.0;1713819.0;-0.04182544847870071;69.09094275824167;4.514971286091068;9.465653353150362;1833.3333333333333;-1823.8676799801829
0.4080000000000003;-3519311319.0;-3520480957.0;1169737.0;0.0011832536540432523;135.82946600044332;-85.59553623342666;10.75217553318599;6416.666666666667;-6405.914491133481
0.4120000000000003;-3519311178.0;-3519755859.0;444539.0;0.03513143606239205;181.49725477493368;-162.40707279627844;8.4870456020872;11416.666666666666;-11408.179621064579
0.4160000000000003;-3519310966.0;-3518953857.0;-357405.0;0.053038106404097084;195.7434871028848;-211.09751092946348;4.476667585426258;12250.0;-12245.523332414574
0.4200000000000003;-3519310746.0;-3518333130.0;-977964.0;0.054930838647132725;145.86030845049396;-187.8707282145543;0.47318306075891037;6666.666666666667;-6666.193483605908
0.4240000000000003;-3519310564.0;-3518118896.0;-1191983.0;0.04548636608199371;48.55821483342722;-99.75980021014253;-2.3611181412847535;-4583.333333333333;4580.972215192049
0.4280000000000003;-3519310440.0;-3518036499.0;-1274175.0;0.031128829998715267;27.835903353672474;-82.57425319108536;-3.589384020819611;-14166.666666666666;14163.077282645847
0.43200000000000033;-3519310370.0;-3517904663.0;-1405852.0;0.017393759439984;33.197690821625294;-93.60947765553317;-3.433767639682817;-12833.333333333334;12829.899565693651
0.43600000000000033;-3519310341.0;-3517866211.0;-1444201.0;0.007360136143085601;13.96435362756811;-76.03922941222336;-2.5084058242245995;-6916.666666666667;6914.158260842442
0.44000000000000034;-3519310334.0;-3517893677.0;-1416681.0;0.0016225943417189008;-7.058237543031574;-53.845549393469135;-1.434385450341675;-1916.6666666666667;1915.232281216325
0.44400000000000034;-3519310337.0;-3517904663.0;-1405674.0;-0.0007509149095676253;7.743722731558607;-68.18256065030566;-0.5933773128216315;-3333.3333333333335;3332.7399560205117
0.44800000000000034;-3519310342.0;-3517877197.0;-1433138.0;-0.0011550652950599934;0.35227777853980663;-61.976496625111054;-0.10103759637309202;-750.0;749.8989624036269
0.45200000000000035;-3519310345.0;-3517712402.0;-1597937.0;-0.0007595803102056171;42.55917782448605;-111.27136607141267;0.09887124621359408;1083.3333333333333;-1083.2344620871197
0.45600000000000035;-3519310346.0;-3517701416.0;-1608927.0;-0.00026458898041562825;13.341621320862323;-82.52647821446502;0.12374783244749721;2916.6666666666665;-2916.542918834219
0.46000000000000035;-3519310346.0;-3517756348.0;-1553997.0;4.9456610653911635e-05;-30.940017224732788;-35.882419416552096;0.07851139776738497;-416.6666666666667;416.74517806443407
0.46400000000000036;-3519310345.0;-3517767334.0;-1543012.0;0.00015831227042948962;-5.029977922132239;-61.31968105298896;0.027213914943894496;-3083.3333333333335;3083.3605472482773
0.46800000000000036;-3519310345.0;-3517794800.0;-1515545.0;0.0001395111593343146;1.248204506162554;-66.41654873008194;-0.004700277773793752;-2416.6666666666665;2416.661966388893
0.47200000000000036;-3519310344.0;-3517630005.0;-1680340.0;7.647551241928371e-05;33.5730271240361;-105.82749690393942;-0.015758911728757725;1166.6666666666667;-1166.6824255783954
0.47600000000000037;-3519310344.0;-3517805786.0;-1504558.0;2.056667683644051e-05;-43.27793865686096;-21.417940714436348;-0.0139772088957108;1916.6666666666667;-1916.6806438755625
0.48000000000000037;-3519310344.0;-3517833252.0;-1477092.0;-1.03706466142169e-05;-3.7468329831548037;-59.7680683389399;-0.0077343308626643525;-2333.3333333333335;2333.325599002471
0.4840000000000004;-3519310344.0;-3517816772.0;-1493572.0;-1.9024356411149345e-05;14.82427160830237;-79.04785898018612;-0.0021634274492331115;-1833.3333333333333;1833.331169905884
