Zeit[sec];Sollposition[°];Istposition[°];Positionsschleppfehler[°];Sollgeschwindigkeit[°/s];Istgeschwindigkeit[°/s];Geschwindigkeitsdifferenz[°/s];Sollbeschleunigung[°/s*s];Istbeschleunigung[°/s*s];Beschleunigungsdifferenz[°/s*s]
0.0;0.0;21973.0;-21973.0;-5.649799793153112e-25;-0.011965933765611397;-1.3064140662343886;-1.977429927603589e-22;0.0;-1.977429927603589e-22
0.004;0.0;21973.0;-21973.0;-9.03967966904498e-25;-1.6366427977396123;0.3182627977396122;-8.47469968972967e-23;0.0;-8.47469968972967e-23
0.008;0.0;27466.0;-27466.0;-3.3898798758918677e-25;3.1998307431188233;-4.847790743118823;1.4124499482882778e-22;0.0;1.4124499482882778e-22
0.012;0.0;27466.0;-27466.0;-2.259919917261245e-25;2.3847418739505666;-4.0327018739505665;2.8248998965765573e-23;0.0;2.8248998965765573e-23
0.016;0.0;21973.0;-21973.0;-0.0;-1.909579538742106;0.5911995387421058;5.649799793153112e-23;0.0;5.649799793153112e-23
0.02;0.0;10986.0;-10986.0;-0.0;-4.4173115151488505;3.7581515151488505;0.0;-83.33333333333333;83.33333333333333
0.024;0.0;21973.0;-21973.0;2.259919917261245e-25;-0.7350856599198415;-0.5832943400801586;5.649799793153112e-23;83.33333333333333;-83.33333333333333
0.028;0.0;16479.0;-16479.0;-0.0;-1.7875577666291396;0.7988177666291394;-5.649799793153112e-23;0.0;-5.649799793153112e-23
0.032;0.0;21973.0;-21973.0;-0.0;2.5005207547063613;-3.8189007547063616;0.0;83.33333333333333;-83.33333333333333
0.036000000000000004;4830.0;16479.0;-16479.0;1.2077158701228574;-2.147831526714335;1.1590915267143347;301.9289675307144;-83.33333333333333;385.2623008640477
0.04000000000000001;52973.0;16479.0;-14564.0;12.035701288423388;0.21879727770409257;-0.6137968057608503;2706.9963545751325;-83.33333333333333;2790.329687908466
0.04400000000000001;289605.0;16479.0;7411.0;59.157912415703365;0.7008009367227764;5.237625504307578;11780.552781819993;0.0;11780.552781819993
0.048000000000000015;1071103.0;27466.0;119046.0;195.37448250705896;4.357432023962699;33.44080446481797;34054.1425228389;0.0;34054.1425228389
0.05200000000000002;3049777.0;38452.0;559618.0;494.6686177991112;3.8584371799274537;142.60819018726684;74823.53382301306;250.0;74573.53382301306
0.05600000000000002;7176552.0;120850.0;1730187.0;1031.6936759892076;25.418793484907773;391.6342132292069;134256.2645475241;750.0;133506.2645475241
0.060000000000000026;14605304.0;703125.0;3971260.0;1857.1879320174367;169.14991488760216;774.9626708933713;206373.56400705726;5750.0;200623.56400705726
0.06400000000000003;26571259.0;4213257.0;5884499.0;2991.4884303545196;982.1149064926552;726.7976524636623;283575.1245842707;36666.666666666664;246908.45791760407
0.06800000000000003;44327241.0;12359619.0;6946471.0;4438.995493775072;2090.6197083077413;628.2520274486469;361876.7658551381;122583.33333333333;239293.43252180473
0.07200000000000004;69126086.0;25323486.0;8217629.0;6199.710786378031;3321.2258963403183;730.5879153801407;440178.82315073983;214166.66666666666;226012.1564840732
0.07600000000000004;102177236.0;44901123.0;9154434.0;8262.787280227458;5010.656575741869;667.2195736740996;515769.1234623567;300250.0;215519.12346235669
0.08000000000000004;144560491.0;72410889.0;9674156.0;10595.813126990093;6963.788390931189;624.0326585203265;583256.4616906588;369583.3333333333;213673.12835732554
0.08400000000000005;197144570.0;108462524.0;10325351.0;13146.019235926633;9147.409446100155;647.8188500086817;637551.527234135;441750.0;195801.52723413493
0.08800000000000005;260528163.0;154588623.0;10572294.0;15845.897488294984;11669.102095994387;558.4954728977191;674969.5630920879;520416.6666666667;154552.89642542112
0.09200000000000005;334992913.0;211953735.0;10013329.0;18616.18639337923;14466.13036881224;336.20553466120145;692572.2262710615;587666.6666666666;104905.55960439486
0.09600000000000006;420491723.0;280085449.0;9595436.0;21374.701598365013;17142.163925897014;362.0163883647656;689628.8012464456;650416.6666666666;39212.13457977899
0.10000000000000006;516683596.0;359187012.0;9268526.0;24047.967020225882;19924.511782379373;325.262186423417;668316.3554652174;677666.6666666666;-9350.311201449244
0.10400000000000006;622987334.0;450032959.0;8096369.0;26575.933457292096;22821.673712325362;82.55482100605877;631991.6092665535;694000.0;-62008.390733446504
0.10800000000000007;738640359.0;551310425.0;6957318.0;28913.25485375947;25438.185556046417;13.856072419432166;584330.3491168435;694083.3333333334;-109752.98421648983
0.11200000000000007;862763566.0;662387695.0;5831383.0;31030.800064588053;27841.19346691296;-3.477919910565106;529386.3027071457;682833.3333333334;-153447.0306261877
0.11600000000000008;994421548.0;782671509.0;4504108.0;32914.49404721013;30200.443176942987;-191.0634962913391;470923.4956555192;636166.6666666666;-165243.1710111474
0.12000000000000008;1132666030.0;910695190.0;3541424.0;34561.11875154835;32095.147923050492;-117.4146785409539;411656.1760845543;587333.3333333334;-175677.15724877905
0.12400000000000008;1276561541.0;1046112671.0;2349221.0;35973.876128950455;33878.03014516802;-180.7591406282154;353189.34435052687;531250.0;-178060.65564947313
0.12800000000000009;1425198071.0;1187638550.0;1269775.0;37159.13068708694;35432.60240618038;-244.80912045310106;296313.63953412074;475666.6666666667;-179353.02713254595
0.1320000000000001;1577700180.0;1334130249.0;520216.0;38125.5255132729;36660.097812493324;-193.35168610245455;241598.70654649058;410916.6666666667;-169317.9601201761
0.1360000000000001;1733251696.0;1484901123.0;-109266.0;38887.87727034657;37753.88564445785;-225.09531963390327;190587.93926841827;348750.0;-158162.06073158173
0.1400000000000001;1891138915.0;1639390869.0;-910510.0;39471.80285948985;38608.39729804573;-240.90429452399985;145981.39728581917;298666.6666666667;-152685.26938084752
0.1440000000000001;2050781420.0;1796336060.0;-1395983.0;39910.624160142535;39245.21386864958;-214.04511087164428;109705.32516317144;240583.33333333334;-130878.0081701619
0.1480000000000001;2211726881.0;1955324707.0;-1815154.0;40236.36345285434;39735.90234567739;-202.44437606046267;81434.82317795133;195000.0;-113565.17682204867
0.1520000000000001;2373619933.0;2115620728.0;-1962353.0;40473.261018059115;40065.52464452736;-146.0623430595515;59224.391301193464;141833.33333333334;-82608.94203213988
0.1560000000000001;2536168174.0;2277125244.0;-2153337.0;40637.05846215581;40381.48343377713;-182.30264651180914;40949.36102417341;106666.66666666667;-65717.30564249326
0.16000000000000011;2699125750.0;2439305420.0;-2186241.0;40739.39184208813;40548.56982764975;-142.92821401250694;25583.34498308068;80083.33333333333;-54499.98835025265
0.16400000000000012;2862298965.0;2601952515.0;-2126640.0;40793.30186419713;40708.13969402714;-159.0657963362246;13477.505527249377;55250.0;-41772.49447275062
0.16800000000000012;3025555840.0;2764956665.0;-2090114.0;40814.216855847735;40761.338953732266;-126.57907987005456;5228.74791265167;42583.333333333336;-37354.585420681666
0.17200000000000013;3188822807.0;2927922363.0;-1850691.0;40816.73983028421;40770.98022721831;-80.74323466425994;630.7436091192358;22000.0;-21369.256390880764
0.17600000000000013;3352069926.0;3091151733.0;-1819675.0;40811.77772012681;40785.48129726573;-79.56717025463877;-1240.5275393502961;17916.666666666668;-19157.194206016964
0.18000000000000013;3515293169.0;3254046021.0;-1454924.0;40805.80882777761;40706.010233032954;21.451975053503702;-1492.2230872998625;2750.0;-4242.2230872998625
0.18400000000000014;3678499596.0;3417198486.0;-1369621.0;40801.604982827055;40752.338132692574;-25.0751702540947;-1050.9612376390578;1500.0;-2550.961237639058
0.18800000000000014;3841697920.0;3580092773.0;-1047192.0;40799.57885263393;40684.20112567763;57.144397240779654;-506.53254828102945;-3500.0;2993.4674517189706
0.19200000000000014;4004894292.0;3743206787.0;-957893.0;40799.091248357334;40746.3771268116;-3.0244210438613663;-121.90106914931675;-2166.6666666666665;2044.7655975173498
0.19600000000000015;4168091629.0;3906243896.0;-797405.0;40799.3322094929;40724.550472837785;27.002624175882374;60.24028389219893;1333.3333333333333;-1273.0930494411343
0.20000000000000015;4331290544.0;4069324951.0;-681694.0;40799.72682701097;40780.99238628103;-22.70438354214275;98.65437951702916;-1833.3333333333333;1931.9877128503624
0.20400000000000015;4494490576.0;4232444458.0;-603244.0;40800.00598028618;40777.39424026163;-14.101622970389144;69.78831880223879;4000.0;-3930.211681197761
0.20800000000000016;4657691059.0;4395525513.0;-484950.0;40800.118807592975;40813.79914683886;-43.06095212803484;28.206826698806253;-1833.3333333333333;1861.5401600321395
0.21200000000000016;4820891530.0;4558612061.0;-371294.0;40800.115954654786;40784.02137560038;-6.249936713677016;-0.7132345472200541;4333.333333333333;-4334.046567880553
0.21600000000000016;4984091801.0;4721621704.0;-180461.0;40800.06574294321;40785.34538833748;3.9439670125429984;-12.55292789392115;-2750.0;2737.447072106079
0.22000000000000017;5147291870.0;4884889526.0;-247891.0;40800.015283224486;40805.500966171596;-20.278362959434162;-12.614929681149079;4250.0;-4262.614929681149
0.22400000000000017;5310491814.0;5047932129.0;-90302.0;40799.98405886241;40762.22997684389;32.397933818509046;-7.806090519807185;-333.3333333333333;325.52724281352613
0.22800000000000017;5473691712.0;5211232910.0;-191063.0;40799.97257366652;40801.06795530175;-12.528536386504129;-2.87129897151317;3750.0;-3752.871298971513
0.23200000000000018;5636891613.0;5374286499.0;-44725.0;40799.97341377439;40742.21295910658;55.083229010386276;0.21002696666982956;-583.3333333333334;583.5433603000032
0.23600000000000018;5800091536.0;5537570801.0;-129128.0;40799.97884153699;40793.820532170364;-1.5952381181632518;1.3569406510214321;-83.33333333333333;84.69027398435476
0.24000000000000019;5963291480.0;5700789185.0;-147602.0;40799.983988406;40794.7444259867;-3.624985111709975;1.286717251787195;1000.0;-998.7132827482128
0.2440000000000002;6126491436.0;5864051514.0;-210000.0;40799.98702291889;40828.5386884855;-41.15783809865388;0.7586282226839103;-416.6666666666667;417.4252948893506
0.2480000000000002;6289691396.0;6027258911.0;-217448.0;40799.98803744555;40803.53415284345;-16.59587145790283;0.2536316660552984;3250.0;-3249.7463683339447
0.25200000000000017;6452891355.0;6190416870.0;-175450.0;40799.98785514329;40826.07449771878;-36.614090336290246;-0.045575565309263766;-2833.3333333333335;2833.287757768024
0.25600000000000017;6616091312.0;6353695679.0;-254299.0;40799.98726959073;40829.29520979585;-44.56519057474361;-0.14638813991041388;2416.6666666666665;-2416.813054806577
0.2600000000000002;6779291267.0;6516793213.0;-151875.0;40799.98675330862;40804.48295014765;-13.60782609868329;-0.1290705276915105;-2833.3333333333335;2833.204262805642
0.2640000000000002;6942491220.0;6680061035.0;-219741.0;40799.9864668488;40795.43581771908;-8.633209395113226;-0.07161495523178019;3500.0;-3500.071614955232
0.2680000000000002;7105691173.0;6843087158.0;-45909.0;40799.98638407575;40745.60536321174;51.626739545150485;-0.020693261831183918;-3166.6666666666665;3166.6459734048353
0.2720000000000002;7268891127.0;7006431885.0;-190683.0;40799.98641486606;40807.461354196654;-18.915898487641243;0.007697577530052513;583.3333333333334;-583.3256357558033
0.2760000000000002;7432091081.0;7169573364.0;-132209.0;40799.98647890081;40761.58960672436;30.46425004430057;0.01600868745299522;-416.6666666666667;416.6826753541197
0.2800000000000002;7595291034.0;7332885132.0;-244023.0;40799.986531174116;40806.60700744151;-21.261947367107496;0.013068325642962009;1083.3333333333333;-1083.3202650076903
0.2840000000000002;7758490988.0;7496037598.0;-196535.0;40799.98655834724;40778.817847875296;9.37655137591355;0.006793281499994919;1166.6666666666667;-1166.6598733851667
0.2880000000000002;7921690942.0;7659343872.0;-302856.0;40799.98656490885;40854.28223574637;-72.46705410483264;0.0016404028428951278;-2666.6666666666665;2666.6683070695094
0.2920000000000002;8084890896.0;7822529297.0;-288327.0;40799.98656069907;40803.21795549568;-20.531014706080896;-0.00105244544101879;2916.6666666666665;-2916.6677191121075
0.2960000000000002;8248090850.0;7985659790.0;-218866.0;40799.986553842304;40829.42244606018;-42.56784285892354;-0.001714191967039369;-3583.3333333333335;3583.3316191413664
0.3000000000000002;8411290804.0;8148845215.0;-204337.0;40799.98654860864;40800.59052922224;-12.8641912171297;-0.0013084154488751665;2666.6666666666665;-2666.6679750821154
0.3040000000000002;8574490758.0;8311942749.0;-101917.0;40799.98654606725;40794.862840339156;-0.9913085316729848;-0.000635347532806918;-4500.0;4499.999364652467
0.3080000000000002;8737690712.0;8475292969.0;-252183.0;40799.9865455894;40817.32244524026;-32.46687760857458;-0.00011946212907787412;4833.333333333333;-4833.333452795462
0.3120000000000002;8900890666.0;8638308105.0;-67365.0;40799.986546121196;40762.735360715924;33.209285176846606;0.0001329481165157631;-2500.0;2500.0001329481165
0.3160000000000002;9064090620.0;8801575928.0;-135234.0;40799.98654684509;40802.78569326409;-10.913187461010239;0.0001809730747481808;916.6666666666666;-916.6664856935919
0.32000000000000023;9227290574.0;8964673462.0;-32814.0;40799.98654736542;40766.89190544147;31.1258009634912;0.00013008320820517838;-2333.3333333333335;2333.3334634165417
0.32400000000000023;9390490528.0;9127985229.0;-144627.0;40799.98654760002;40838.67508037215;-47.36615332500514;5.864967533852905e-05;-83.33333333333333;83.33339198300867
0.32800000000000024;9553690482.0;9291154175.0;-113619.0;40799.986547628;40805.23525676587;-12.065849310463818;6.995833246037364e-06;2333.3333333333335;-2333.3333263375002
0.33200000000000024;9716890436.0;9454438477.0;-197967.0;40799.986547564404;40868.864299023924;-80.75577141423855;-1.589978637639433e-05;-1000.0;999.9999841002136
0.33600000000000024;9880090390.0;9617557983.0;-117519.0;40799.98654748807;40804.34101286908;-11.405605266430939;-1.908301783259958e-05;2916.6666666666665;-2916.6666857496843
0.34000000000000025;10043290344.0;9780732422.0;-92004.0;40799.986547437176;40844.09804008746;-49.63173255302536;-1.2723830877803266e-05;-3666.6666666666665;3666.6666539428356
0.34400000000000025;10206490298.0;9944016724.0;-176352.0;40799.98654741733;40818.288178498224;-28.88275102990883;-4.9622030928730965e-06;4166.666666666667;-4166.66667162887
0.34800000000000025;10369690252.0;10107059326.0;-19000.0;40799.98654741529;40778.61529810226;20.23124932729843;-5.093170329928398e-07;-2750.0;2749.999999490683
0.35200000000000026;10532890206.0;10270382080.0;-141800.0;40799.98654742191;40822.19525520529;-30.716707788764325;1.6552803572267294e-06;2500.0;-2499.9999983447196
0.35600000000000026;10696090159.0;10433452148.0;-11914.0;40799.98654743056;40773.25216832933;26.01953908856376;2.1627784008160233e-06;-3333.3333333333335;3333.333335496112
0.36000000000000026;10859290070.0;10596796875.0;-156687.0;40799.975617972465;40814.87132271574;-24.285995290469145;-2.7323645244905492;1750.0;-1752.7323645244905
0.36400000000000027;11022489654.0;10759905396.0;-65272.0;40799.89402218131;40769.24729931257;26.81859475859528;-20.39894778863527;416.6666666666667;-437.06561445530195
0.36800000000000027;11185688054.0;10923211670.0;-171765.0;40799.59817123335;40830.198733182915;-40.561302626920224;-73.96273698941513;-916.6666666666666;842.7039296772515
0.3720000000000003;11348874273.0;11086375122.0;-136100.0;40796.55284585794;40778.41620489553;13.194995108031435;-761.3313438523619;1750.0;-2511.331343852362
0.3760000000000003;11511985564.0;11249631958.0;-199359.0;40777.820857352934;40836.73785096268;-50.30691015579214;-4682.997126252303;-2250.0;-2432.997126252303
0.3800000000000003;11674836133.0;11412795410.0;-206228.0;40712.64019450103;40800.886181211936;-24.11611240550701;-16295.165712976086;2583.3333333333335;-18878.49904630942
0.3840000000000003;11837058744.0;11575914917.0;-317377.0;40555.65092387621;40807.01480022512;-73.96991949992662;-39247.31765620527;-4250.0;-34997.31765620527
0.3880000000000003;11998080338.0;11738787231.0;-586570.0;40255.396585530936;40693.83539804678;-78.2512784447681;-75063.58458631803;-83.33333333333333;-74980.2512529847
0.3920000000000003;12157119077.0;11900786133.0;-835366.0;39759.68279858883;40483.16512220191;-95.76245299795846;-123928.44673552645;-17166.666666666668;-106761.78006885978
0.3960000000000003;12313201048.0;12061697388.0;-1504161.0;39020.49095796775;40169.7450538591;-199.38159655907657;-184797.96015527064;-32666.666666666668;-152131.29348860396
0.4000000000000003;12465193544.0;12220252075.0;-2180803.0;37998.12221311347;39561.81246730138;-223.15129067589442;-255592.18621356922;-69166.66666666667;-186425.51954690256
0.4040000000000003;12611838873.0;12375730591.0;-3181436.0;36661.33045311313;38788.34542911817;-359.7626617824717;-334197.9400000855;-113083.33333333333;-221114.6066667522
0.4080000000000003;12751789950.0;12526567383.0;-4121838.0;34987.76755970793;37627.86068564522;-401.07535613631626;-418390.72335130005;-174000.0;-244390.72335130005
0.4120000000000003;12883664260.0;12671685791.0;-5217753.0;32968.57583243324;36219.49265699898;-526.9361574820286;-504797.9318186717;-247583.33333333334;-257214.59848533839
0.4160000000000003;13006111366.0;12809608154.0;-6352126.0;30611.77523715575;34373.68926536699;-557.821203074338;-589200.1488193728;-320750.0;-268450.14881937276
0.4200000000000003;13117879762.0;12938708496.0;-7268573.0;27942.097708008558;32127.144836328134;-517.2867933861562;-667419.3822867983;-409083.3333333333;-258336.04895346495
0.4240000000000003;13217905587.0;13057893677.0;-8185352.0;25006.45502524808;29643.51654181155;-567.5384727634228;-733910.6706901194;-497166.6666666667;-236744.00402345264
0.4280000000000003;13305428124.0;13165323486.0;-8439940.0;21880.633070018794;26748.238245650173;-460.83075016688963;-781455.4888073216;-593000.0;-188455.48880732167
0.43200000000000033;13380075030.0;13260712280.0;-8691463.0;18661.72576240296;23694.76021010106;-431.93149778918087;-804726.8269039587;-670833.3333333334;-133893.49357062532
0.43600000000000033;13441899969.0;13343230591.0;-8718963.0;15456.23402180437;20488.5184095693;-388.9542085746725;-801372.9351496472;-735166.6666666666;-66206.2684829806
0.44000000000000034;13491400920.0;13412664185.0;-8513917.0;12375.237176158298;17194.587174883403;-295.76303681396894;-770249.211411518;-777166.6666666666;6917.455255148638
0.44400000000000034;13529500457.0;13468699951.0;-7535884.0;9524.88368051556;13892.94335734886;-91.64730609983417;-712588.3739106844;-810500.0;97911.62608931563
0.44800000000000034;13557470266.0;13512799072.0;-6582326.0;6992.452056972634;10916.587329018577;-48.35762121678454;-633107.9058857317;-811750.0;178642.0941142683
0.45200000000000035;13576833079.0;13546208496.0;-5841686.0;4840.702862869991;8252.562135385371;-65.54789434708073;-537937.2985256608;-778666.6666666666;240729.36814100592
0.45600000000000035;13589260807.0;13569351196.0;-4367763.0;3106.9318624058674;5709.089728075042;183.0000810612828;-433442.75011603086;-716333.3333333334;282890.5832173025
0.46000000000000035;13596449923.0;13584484863.0;-2837838.0;1797.2788895775193;3730.22713212353;265.40024466845944;-327413.24320708704;-645333.3333333334;317920.09012624633
0.46400000000000036;13599982922.0;13593416748.0;-1378388.0;883.2497453091067;2192.3788744356634;322.7515820272324;-228507.28606710315;-555583.3333333334;327076.0472662302
0.46800000000000036;13601223747.0;13597833252.0;-24674.0;310.20628428696654;1092.995651620865;348.0782718470907;-143260.86525553506;-450500.0;307239.13474446494
0.47200000000000036;13601254665.0;13599234009.0;1220180.0;7.72945584125445;349.70543287552147;384.90797345957225;-75619.20711142803;-334666.6666666667;259047.45955523866
0.47600000000000037;13600832928.0;13599288940.0;1939795.0;-105.43416133337952;43.33425335381925;266.69007118442244;-28290.904293658492;-234666.66666666666;206375.76237300815
0.48000000000000037;13600389730.0;13599255981.0;1831290.0;-110.7994887344161;-1.730782286196947;76.24235726591367;-1341.331850259145;-134250.0;132908.66814974084
