Zeit[sec];Sollposition[°];Istposition[°];Positionsschleppfehler[°];Sollgeschwindigkeit[°/s];Istgeschwindigkeit[°/s];Geschwindigkeitsdifferenz[°/s];Sollbeschleunigung[°/s*s];Istbeschleunigung[°/s*s];Beschleunigungsdifferenz[°/s*s]
0.0;-9979199999.0;-9979194946.0;-5053.0;0.0;2.845284317791462;-3.148464317844077;0.0;0.0;0.0
0.004;-9979199999.0;-9979205933.0;5934.0;0.0;-3.290695048175752;3.646735048192315;0.0;0.0;0.0
0.008;-9979199999.0;-9979200439.0;440.0;0.0;0.30089160346239807;-0.2744916034376433;0.0;0.0;0.0
0.012;-9979199999.0;-9979194946.0;-5053.0;0.0;3.20641566490382;-3.509595664956435;0.0;0.0;0.0
0.016;-9979199999.0;-9979205933.0;5934.0;0.0;-2.0055381476283074;2.3615781476448703;0.0;0.0;0.0
0.02;-9979199999.0;-9979211426.0;11427.0;0.0;-3.794702586174011;4.480322586129445;0.0;0.0;0.0
0.024;-9979199999.0;-9979194946.0;-5053.0;0.0;2.987265360891819;-3.2904453609444335;0.0;0.0;0.0
0.028;-9979199999.0;-9979194946.0;-5053.0;0.0;2.5813907835632564;-2.884570783615871;0.0;0.0;0.0
0.032;-9979199999.0;-9979194946.0;-5053.0;0.0;1.9254819871783257;-2.2286619872309403;0.0;0.0;0.0
0.036000000000000004;-9979199999.0;-9979200439.0;440.0;0.0;0.7882193782478571;-0.7618193782231024;0.0;0.0;0.0
0.04000000000000001;-9979199999.0;-9979205933.0;5934.0;0.0;-1.4289390397742392;1.784979039790802;0.0;0.0;0.0
0.04400000000000001;-9979199999.0;-9979200439.0;440.0;0.0;0.9239199124574662;-0.8975199124327115;0.0;0.0;0.0
0.048000000000000015;-9979199621.0;-9979194946.0;-5053.0;0.09456390564712489;3.5583839435875415;-3.8615639436401565;23.64097641178122;0.0;23.64097641178122
0.05200000000000002;-9979195852.0;-9979205933.0;6085.0;0.942392946738579;-2.4326134567037223;2.8352065677782443;211.95726027286352;0.0;211.95726027286352
0.05600000000000002;-9979096998.0;-9979194946.0;-3182.0;24.713532131127636;3.386497321419418;-3.147256533725918;5942.784796097264;0.0;5942.784796097264
0.060000000000000026;-9978909511.0;-9979200439.0;43760.0;46.87175202656233;-0.9093101926892996;13.897220653720087;5539.554973858674;0.0;5539.554973858674
0.06400000000000003;-9978547401.0;-9979178467.0;155226.0;90.52745870057397;5.860854406103492;36.81234167274241;10913.92666850291;83.33333333333333;10830.593335169577
0.06800000000000003;-9977969807.0;-9979129028.0;361990.0;144.39853242413972;14.13594583941996;71.63417844332824;13467.768430891436;666.6666666666666;12801.10176422477
0.07200000000000004;-9977146162.0;-9978870850.0;550335.0;205.91122385359336;64.21860419740528;80.43219834280694;15378.17285736341;3000.0;12378.17285736341
0.07600000000000004;-9975989092.0;-9978200684.0;554056.0;289.2674637280962;177.39742352874578;24.317639088800433;20839.059968625705;9000.0;11839.059968625705
0.08000000000000004;-9974375404.0;-9977041626.0;349399.0;403.42189910431983;285.03543770263343;-25.47125310634749;28538.608844055914;19000.0;9538.608844055914
0.08400000000000005;-9972194488.0;-9975739746.0;383677.0;545.229044300046;327.9040932870656;29.156024936665062;35451.78629893154;22833.333333333332;12618.452965598206
0.08800000000000005;-9969355482.0;-9974053345.0;533186.0;709.7514210979929;431.98276776172224;58.98573503144274;41130.594199486724;21500.0;19630.594199486724
0.09200000000000005;-9965775891.0;-9971762695.0;681051.0;894.8978027007029;585.0200823894515;65.47167240743522;46286.5954006775;21583.333333333332;24703.262067344167
0.09600000000000006;-9961380973.0;-9968845825.0;892961.0;1098.7292796404915;740.7104286201522;95.06230156961897;50957.86923494717;28583.333333333332;22374.535901613835
0.10000000000000006;-9956113336.0;-9965225830.0;1171482.0;1316.909213636835;907.0937577072159;137.82411865358313;54544.98349908584;38000.0;16544.983499085844
0.10400000000000006;-9949930875.0;-9960688477.0;1370289.0;1545.6151869324965;1144.6111606208458;121.64606872751801;57176.4933239154;43333.333333333336;13843.159990582059
0.10800000000000007;-9942801952.0;-9955173340.0;1480389.0;1782.2305884840448;1390.980702532135;104.15179793480866;59153.850387887076;50500.0;8653.850387887076
0.11200000000000007;-9934705940.0;-9948784790.0;1644197.0;2024.002954298523;1613.223284551099;123.51795791868699;60443.091453619556;55583.333333333336;4859.758120286223
0.11600000000000008;-9925632700.0;-9941418457.0;1784677.0;2268.30992442444;1854.9077485074997;128.87600696038635;61076.74253147923;59000.0;2076.7425314792263
0.12000000000000008;-9915579825.0;-9932997437.0;1841458.0;2513.218599582846;2114.8704893738777;115.06720632724364;61227.16878960148;59833.333333333336;1393.8354562681425
0.12400000000000008;-9904549141.0;-9923686523.0;1986468.0;2757.670865651597;2349.0440708167257;134.12491045689603;61113.066517187806;60500.0;613.0665171878036
0.12800000000000009;-9892543842.0;-9913172607.0;1907373.0;3001.3246085410124;2629.025646660738;94.12182508320393;60913.435722353825;63750.0;-2836.5642776461755
0.1320000000000001;-9879567123.0;-9901834717.0;1980858.0;3244.179552154468;2855.877509538844;115.81740058221249;60713.73590336395;62583.333333333336;-1869.5974299693817
0.1360000000000001;-9865621946.0;-9889502563.0;2033445.0;3486.294129515288;3102.0498650348336;116.14197539078714;60528.644340205006;62250.0;-1721.3556597949946
0.1400000000000001;-9850710916.0;-9876005859.0;1891746.0;3727.7574412628724;3373.7880808004065;78.46790005204775;60365.827936896036;62583.333333333336;-2217.5053964372964
0.1440000000000001;-9834836759.0;-9861707153.0;1915488.0;3968.538929382451;3576.731389367618;118.80981028965243;60195.37202989466;62583.333333333336;-2387.9613034386794
0.1480000000000001;-9818003144.0;-9846342773.0;1838344.0;4208.403641664053;3855.7423061848954;76.36704881428841;59966.17807040048;61416.666666666664;-1450.4885962661901
0.1520000000000001;-9800214604.0;-9830066528.0;1811023.0;4447.134656361772;4069.0722665777507;101.81982430616199;59682.7536744297;60916.666666666664;-1233.9129922369593
0.1560000000000001;-9781476613.0;-9812807007.0;1758108.0;4684.497643043169;4335.883243661568;71.25453785946956;59340.74667034929;58666.666666666664;674.0800036826258
0.16000000000000011;-9761796036.0;-9794586182.0;1696670.0;4920.144052606173;4556.869425278559;84.7773319664293;58911.60239075111;62333.333333333336;-3421.7309425822223
0.16400000000000012;-9741180831.0;-9775327148.0;1543784.0;5153.801048064339;4807.865659309171;61.29834440055038;58414.248864541376;60250.0;-1835.7511354586222
0.16800000000000012;-9719639733.0;-9755222168.0;1484424.0;5385.274169727923;5047.662174364612;52.80792536914669;57868.28041589615;60916.666666666664;-3048.3862507705126
0.17200000000000013;-9697182351.0;-9734133911.0;1372997.0;5614.345107383715;5279.472921082757;47.114338995897015;57267.734413947896;58833.333333333336;-1565.5989193854439
0.17600000000000013;-9673819023.0;-9712221680.0;1359732.0;5840.831725424437;5504.264121610746;52.06072784215394;56621.65451018041;56333.333333333336;288.3211768470701
0.18000000000000013;-9649560570.0;-9689337158.0;1286416.0;6064.612968214374;5737.771560372785;42.21469968535439;55945.310697484274;58083.333333333336;-2138.0226358490618
0.18400000000000014;-9624418167.0;-9665546265.0;1208446.0;6285.600468889869;5955.242085224718;45.49509635643426;55246.875168873885;57166.666666666664;-1919.7914977927794
0.18800000000000014;-9598403231.0;-9640750122.0;1015984.0;6503.733865095121;6210.147514785841;1.7313662972492239;54533.34905131283;58500.0;-3966.6509486871746
0.19200000000000014;-9571527318.0;-9615097046.0;846077.0;6718.97770899246;6429.30004965724;-7.743326142966907;53810.96097433488;58333.333333333336;-4522.37235899846
0.19600000000000015;-9543802057.0;-9588724365.0;824583.0;6931.315163088372;6600.633337977342;36.638202669654675;53084.36352397803;56083.333333333336;-2998.969809355309
0.20000000000000015;-9515239082.0;-9561445313.0;753153.0;7140.743393664461;6810.076029312991;37.01814805793674;52357.057644022236;53666.666666666664;-1309.6090226444303
0.20400000000000015;-9485850029.0;-9533364258.0;724523.0;7347.262885296666;7013.257271317482;43.32012810809283;51629.872908051315;51000.0;629.8729080513112
0.20800000000000016;-9455646547.0;-9504327393.0;573251.0;7550.87002951645;7258.73112118914;-2.938034498097295;50901.786054945886;51750.0;-848.2139450541126
0.21200000000000016;-9424640299.0;-9474444580.0;397559.0;7751.56173662493;7475.529975538619;-24.89657406675451;50172.92677711998;54500.0;-4327.073222880017
0.21600000000000016;-9392842966.0;-9444138794.0;608767.0;7949.3327942805445;7604.522376654298;61.25178831208996;49442.76441390366;49666.666666666664;-223.90225276300407
0.22000000000000017;-9360266275.0;-9412849731.0;634901.0;8144.172479464635;7846.685238027394;20.207764813822905;48709.92129602269;47083.333333333336;1626.5879626893493
0.22400000000000017;-9326921985.0;-9380797119.0;683990.0;8336.071882607906;8027.089743689895;39.37452660506278;47974.850785817805;46666.666666666664;1308.184119151143
0.22800000000000017;-9292821887.0;-9348233643.0;996980.0;8525.024144144672;8168.949720706098;109.98503489623727;47238.06538419149;46250.0;988.0653841914864
0.23200000000000018;-9257977801.0;-9314697876.0;1100671.0;8711.02103985948;8410.230511647045;65.67383971592062;46499.22392870212;46833.333333333336;-334.1094046312137
0.23600000000000018;-9222401576.0;-9280299683.0;1093127.0;8894.055953554189;8613.559743194006;49.68974174262257;45758.728423676985;47833.333333333336;-2074.604909656351
0.24000000000000019;-9186105075.0;-9245308228.0;1231681.0;9074.124770353395;8770.884846999192;85.5177106589581;45017.20419980165;49833.333333333336;-4816.129133531682
0.2440000000000002;-9149100176.0;-9209393921.0;1174887.0;9251.224392405806;8988.553173599736;46.31800204264073;44274.90551310257;50500.0;-6225.094486897433
0.2480000000000002;-9111398763.0;-9172749023.0;1103138.0;9425.352624054303;9153.25016251517;56.22503007701016;43532.0579121244;48750.0;-5217.942087875599
0.25200000000000017;-9073012728.0;-9135401001.0;1032022.0;9596.508316024529;9350.73367973125;30.41346267159861;42788.92299255631;47416.666666666664;-4627.743674110356
0.25600000000000017;-9033953962.0;-9097327881.0;927675.0;9764.691224231918;9522.328496594853;25.524902410783397;42045.72705184728;47250.0;-5204.27294815272
0.2600000000000002;-8994234353.0;-9058617554.0;866099.0;9929.901676372685;9682.90245671668;31.250829171454825;41302.613035191825;42750.0;-1447.3869648081745
0.2640000000000002;-8953865783.0;-9019094238.0;659621.0;10092.14210710271;9893.74769661299;-24.96129624832065;40560.10768250644;44500.0;-3939.892317493559
0.2680000000000002;-8912860113.0;-8978928223.0;466646.0;10251.41702425355;10053.284157574952;-32.02595541755727;39818.72928770963;44083.333333333336;-4264.604045623706
0.2720000000000002;-8871229194.0;-8938070068.0;225859.0;10407.72925524304;10205.701201175765;-37.808165617023406;39078.05774737289;45166.666666666664;-6088.608919293769
0.2760000000000002;-8828984852.0;-8896761475.0;167104.0;10561.084853389713;10318.383076943339;4.1022930512153835;38338.89953666812;41833.333333333336;-3494.433796665213
0.2800000000000002;-8786138866.0;-8855288086.0;564183.0;10711.495933436285;10386.647673908346;114.819767840243;37602.77001164286;31250.0;6352.7700116428605
0.2840000000000002;-8742702981.0;-8813188477.0;943865.0;10858.970961063413;10543.051578644552;133.40224985264103;36868.756906781986;24583.333333333332;12285.42357344865
0.2880000000000002;-8698692673.0;-8770160522.0;992256.0;11002.576289703562;10764.625283963815;63.996238707233715;35901.33216003733;31083.333333333332;4817.998826703995
0.2920000000000002;-8654131172.0;-8726456909.0;948821.0;11140.374835172013;10941.645821516902;30.327557029073432;34449.63636711282;42000.0;-7550.3636328871835
0.2960000000000002;-8609045945.0;-8682182007.0;899401.0;11271.306185997075;11072.488931242056;37.84495116490143;32732.8377062654;47250.0;-14517.1622937346
0.3000000000000002;-8563473168.0;-8637302856.0;786171.0;11393.193725816658;11208.641859352767;30.0080572667066;30471.884954895813;42166.666666666664;-11694.781711770851
0.3040000000000002;-8517467851.0;-8591918335.0;677114.0;11501.328777203093;11361.243612825156;-1.7512576661683852;27033.762846608624;35750.0;-8716.237153391376
0.3080000000000002;-8471098396.0;-8546011963.0;512157.0;11592.363174365559;11475.98313347235;-9.900314194861494;22758.59929061653;34500.0;-11741.40070938347
0.3120000000000002;-8424439699.0;-8499644165.0;291517.0;11664.673645893434;11591.798616096246;-37.51870664735179;18077.617881968763;32083.333333333332;-14005.71545136457
0.3160000000000002;-8377575455.0;-8453133545.0;262898.0;11716.060510568203;11611.56466695185;24.708954852592797;12846.716168692183;29000.0;-16153.283831307817
0.32000000000000023;-8330589748.0;-8406342773.0;210625.0;11746.426097697422;11698.14584702249;-0.8843063743770472;7591.396782304855;19666.666666666668;-12075.269884361813
0.32400000000000023;-8283613581.0;-8359420166.0;199215.0;11744.04115117909;11732.012646520667;7.739149971745064;-596.2366295830179;14583.333333333334;-15179.569962916352
0.32800000000000024;-8236711774.0;-8312541504.0;301766.0;11725.451349026216;11733.988772001152;29.419768304567697;-4647.450538218436;8250.0;-12897.450538218436
0.33200000000000024;-8189988287.0;-8265833130.0;540133.0;11680.871177928382;11673.779210418978;95.31332896816457;-11145.042774458489;4666.666666666667;-15811.709441125156
0.33600000000000024;-8143527065.0;-8219207153.0;745697.0;11615.304973536991;11667.539260836314;85.08749153692588;-16391.551097847696;-5083.333333333333;-11308.217764514364
0.34000000000000025;-8097390554.0;-8172229614.0;388706.0;11534.127014879063;11723.862057811062;-45.40328351176868;-20294.48966448217;-250.0;-20044.48966448217
0.34400000000000025;-8051625657.0;-8125834351.0;327459.0;11441.223858860834;11592.012924327068;11.13797398655879;-23225.7890045571;-3333.3333333333335;-19892.455671223768
0.34800000000000025;-8006271122.0;-8079763184.0;247367.0;11338.633104452023;11515.09475995376;-2.484722722640072;-25647.688602202834;-8416.666666666666;-17231.02193553617
0.35200000000000026;-7961354850.0;-8033642578.0;-268867.0;11229.067556389948;11534.73500239648;-149.77444024841134;-27391.38701551883;-16750.0;-10641.38701551883
0.35600000000000026;-7916892379.0;-7988214111.0;-514159.0;11115.617118089604;11348.534786657323;-83.59113234862525;-28362.609575086026;-17833.333333333332;-10529.276241752694
0.36000000000000026;-7872889054.0;-7943351440.0;-637915.0;11000.830780171344;11212.700433344704;-66.24711744459455;-28696.58447956499;-22916.666666666668;-5779.917812898322
0.36400000000000027;-7829343808.0;-7898856812.0;-849458.0;10886.310949315106;11109.521199254266;-89.71780195088832;-28629.9577140594;-28583.333333333332;-46.62438072606892
0.36800000000000027;-7786252741.0;-7854955444.0;-926431.0;10772.766285594991;10972.337943219676;-71.82577041173863;-28386.16593002871;-34250.0;5863.83406997129
0.3720000000000003;-7743611628.0;-7811823120.0;-690900.0;10660.27776529658;10771.81625756082;28.693021358576516;-28122.130074602865;-33083.333333333336;4961.203258730471
0.3760000000000003;-7701417159.0;-7769531250.0;-67442.0;10548.616676500844;10566.797255223659;157.9878704702005;-27915.272198933962;-41833.333333333336;13918.061134399373
0.3800000000000003;-7659667030.0;-7727338257.0;206227.0;10437.531896204326;10540.124903698135;88.91371701913886;-27771.195074129537;-41083.333333333336;13312.138259203799
0.3840000000000003;-7618359739.0;-7685233154.0;122037.0;10326.822117633257;10512.349603146773;0.20017785828895285;-27677.444642767114;-28583.333333333332;905.8886905662184
0.3880000000000003;-7577494471.0;-7643562012.0;28049.0;10216.316489995455;10407.324974808946;-11.353948583137026;-27626.406909450452;-16250.0;-11376.406909450452
0.3920000000000003;-7537070762.0;-7602418213.0;18880.0;10105.926904843887;10280.419048241361;4.370804792741183;-27597.396287892025;-17333.333333333332;-10264.062954558693
0.3960000000000003;-7497088379.0;-7561647949.0;-58597.0;9995.595140381447;10177.41165723018;-7.731238998070694;-27582.941115610083;-24500.0;-3082.941115610083
0.4000000000000003;-7457547470.0;-7521536865.0;81636.0;9885.22675836479;10043.658309697084;24.068748446799873;-27592.095504164263;-31833.333333333332;4241.237829169069
0.4040000000000003;-7418448478.0;-7481568604.0;-76693.0;9774.747573750936;9999.332993504297;-51.45229690414999;-27619.79615346354;-28083.333333333332;463.53717986979245
0.4080000000000003;-7379792055.0;-7441990356.0;-286659.0;9664.105309964736;9880.395908248714;-55.52527060761895;-27660.565946549923;-24416.666666666668;-3243.899279883255
0.4120000000000003;-7341579115.0;-7402862549.0;-488356.0;9553.234584220767;9768.271989799421;-66.04636588200628;-27717.68143599229;-21083.333333333332;-6634.348102658958
0.4160000000000003;-7303810808.0;-7364360962.0;-506761.0;9442.076225035808;9623.98476049229;-33.59532641549595;-27789.589796239852;-25750.0;-2039.5897962398521
0.4200000000000003;-7266488450.0;-7326260376.0;-568098.0;9330.589087690754;9517.814428150527;-42.08864333863494;-27871.784336263318;-31750.0;3878.2156637366825
0.4240000000000003;-7229613470.0;-7288687134.0;-547240.0;9218.744665695353;9378.812395453542;-13.122159877604645;-27961.10549885043;-31333.333333333332;3372.227834482903
0.4280000000000003;-7193187367.0;-7251635742.0;-451039.0;9106.525297278366;9266.897725262355;-7.062298378250489;-28054.842104246745;-32000.0;3945.1578957532547
0.43200000000000033;-7157211680.0;-7214968872.0;-418281.0;8993.921343237904;9165.212726233445;-15.402808277627628;-28150.98851011544;-29833.333333333332;1682.3448232178926
0.43600000000000033;-7121687965.0;-7178889771.0;-247231.0;8880.928284861859;9028.870013906315;18.833250393645358;-28248.26459401129;-31250.0;3001.735405988711
0.44000000000000034;-7086617779.0;-7142997437.0;-340439.0;8767.545930934546;8972.512074233178;-43.15726433157943;-28345.588481828145;-26750.0;-1595.5884818281447
0.44400000000000034;-7052002716.0;-7107396240.0;-595090.0;8653.765519053564;8884.489383302123;-83.55876147172967;-28445.102970245443;-22166.666666666668;-6278.436303578776
0.44800000000000034;-7017844448.0;-7072443237.0;-655699.0;8539.566533299212;8731.23563889842;-47.47945372565846;-28549.746438588045;-22583.333333333332;-5966.413105254713
0.45200000000000035;-6984144695.0;-7038121948.0;-540370.0;8424.937817363412;8586.37469333135;-9.64280566931484;-28657.17898394996;-28750.0;92.82101605003845
0.45600000000000035;-6950905247.0;-7004240112.0;-443056.0;8309.861575274153;8473.605847374774;-5.402034188240577;-28769.060522314703;-35250.0;6480.939477685297
0.46000000000000035;-6918128052.0;-6970693359.0;-469873.0;8194.298425396484;8386.299019963886;-34.50786189013343;-28890.78746941732;-32750.0;3859.212530582681
0.46400000000000036;-6885815172.0;-6937608032.0;-496331.0;8078.219549087573;8257.961163571585;-23.02415669369293;-29019.71907722782;-26000.0;-3019.719077227819
0.46800000000000036;-6853968787.0;-6905072021.0;-436532.0;7961.595939015075;8141.976077912878;-19.215905409147126;-29155.90251812455;-27833.333333333332;-1322.5691847912167
0.47200000000000036;-6822591268.0;-6872849121.0;-528789.0;7844.379451915498;8062.517820487428;-61.5849008837622;-29304.121774894156;-27750.0;-1554.1217748941563
0.47600000000000037;-6791685133.0;-6841148071.0;-566619.0;7726.53330777252;7927.494047733918;-45.68641288096023;-29461.53603574453;-28666.666666666668;-794.8693690778618
0.48000000000000037;-6761253003.0;-6809946899.0;-574421.0;7608.032087392672;7798.896958549973;-35.02010608702676;-29625.305094961957;-27333.333333333332;-2291.971761628627
0.4840000000000004;-6731297623.0;-6779108276.0;-692083.0;7488.844627861217;7699.534682886422;-60.81973266217665;-29796.8648828637;-28083.333333333332;-1713.5315495303694
0.4880000000000004;-6701821845.0;-6748610229.0;-944246.0;7368.944294798008;7586.420971168838;-81.60526608821965;-29975.08326580237;-26083.333333333332;-3891.749932469036
0.4920000000000004;-6672828590.0;-6718941650.0;-844806.0;7248.313303855723;7381.309478591658;10.006544673397002;-30157.74773557132;-28250.0;-1907.74773557132
