Zeit[sec];Sollposition[°];Istposition[°];Positionsschleppfehler[°];Sollgeschwindigkeit[°/s];Istgeschwindigkeit[°/s];Geschwindigkeitsdifferenz[°/s];Sollbeschleunigung[°/s*s];Istbeschleunigung[°/s*s];Beschleunigungsdifferenz[°/s*s]
0.0;0.0;-120850.0;120850.0;4.463341836590959e-25;0.11447374615256604;11.487126253847435;-2.2316709182954796e-22;-83.33333333333333;83.33333333333333
0.004;0.0;-115356.0;115356.0;-0.0;1.8414679227526325;9.232708077247368;-1.1158354591477396e-22;-83.33333333333333;83.33333333333333
0.008;0.0;-115356.0;115356.0;-4.463341836590959e-25;2.3548434770055406;8.71933252299446;-1.1158354591477396e-22;0.0;-1.1158354591477396e-22
0.012;0.0;-126343.0;126343.0;-0.0;-4.722964727772801;16.8518927277728;1.1158354591477396e-22;0.0;1.1158354591477396e-22
0.016;0.0;-115356.0;115356.0;-0.0;1.4742921775445135;9.599883822455489;0.0;0.0;0.0
0.02;0.0;-115356.0;115356.0;-0.0;0.10589392003909387;10.968282079960908;0.0;83.33333333333333;-83.33333333333333
0.024;0.0;-115356.0;115356.0;-0.0;-0.5774937819003185;11.65166978190032;0.0;0.0;0.0
0.028;0.0;-115356.0;115356.0;-0.0;-1.1122872601565172;12.186463260156518;0.0;0.0;0.0
0.032;0.0;-109863.0;109863.0;-0.0;1.9325247009716306;8.61432329902837;0.0;-83.33333333333333;83.33333333333333
0.036000000000000004;0.0;-109863.0;109863.0;-0.0;1.0230289692629788;9.523819030737021;0.0;0.0;0.0
0.04000000000000001;0.0;-104370.0;104370.0;-0.0;5.0269883717825286;4.992531628217471;0.0;0.0;0.0
0.04400000000000001;0.0;-109863.0;109863.0;-0.0;0.9303994764616346;9.616448523538367;0.0;0.0;0.0
0.048000000000000015;0.0;-98877.0;98877.0;-4.2108378198006875e-13;4.790819030575587;4.701372969424412;-1.0527094549501719e-10;0.0;-1.0527094549501719e-10
0.05200000000000002;0.0;-109863.0;109863.0;-4.196383224467239e-12;-2.308735550383235;12.855583550383068;-9.438248606217926e-10;0.0;-9.438248606217926e-10
0.05600000000000002;0.0;-98877.0;98877.0;-2.0626074485129024e-11;2.641435686493746;6.850756313504337;-4.1074228151654466e-09;0.0;-4.1074228151654466e-09
0.060000000000000026;0.0;-109863.0;109863.0;-6.438645506975657e-11;-1.6507889031382623;12.197636903127574;-1.0940095146156886e-08;0.0;-1.0940095146156886e-08
0.06400000000000003;84089.0;-104370.0;104370.0;21.022484950210288;0.9877923671943579;9.031727632767762;5255.621237568668;0.0;5255.621237568668
0.06800000000000003;141586.0;-98877.0;132217.0;14.374107421014738;2.396342087894251;18.63157671849818;-1662.0943822988875;0.0;-1662.0943822988875
0.07200000000000004;205989.0;-76904.0;183297.0;16.10079474037521;8.4480088391568;27.411831678870833;431.6718298401181;83.33333333333333;348.33849650678474
0.07600000000000004;268915.0;-54932.0;221716.0;15.731386627985456;5.945026497535682;30.437376803201243;-92.35202809743859;583.3333333333334;-675.685361430772
0.08000000000000004;325176.0;-16479.0;247040.0;14.06546281635338;9.200281403805961;30.459771483496596;-416.4809529080191;666.6666666666666;-1083.1476195746857
0.08400000000000005;371425.0;27466.0;263387.0;11.562253422261678;10.796901042736891;29.56128932465454;-625.8023485229254;666.6666666666666;-1292.469015189592
0.08800000000000005;402362.0;87891.0;255292.0;7.734243110305768;16.550248642894047;21.040524033682537;-957.0025779889775;333.3333333333333;-1290.3359113223107
0.09200000000000005;412236.0;131836.0;251584.0;2.468462802685949;8.880642553751263;25.330595835024525;-1316.445076904955;583.3333333333334;-1899.7784102382882
0.09600000000000006;398891.0;109863.0;296233.0;-3.3363965868777123;-8.380069088149101;42.487310332222535;-1451.2148473909153;-500.0;-951.2148473909153
0.10000000000000006;363472.0;-5493.0;412379.0;-8.854571591266655;-28.996666691050418;68.78283162819228;-1379.5437510972356;-2416.6666666666665;1037.122915569431
0.10400000000000006;309070.0;-82397.0;467322.0;-13.600687976522138;-14.869751173381408;54.242409266733645;-1186.529096313871;-3583.3333333333335;2396.8042370194626
0.10800000000000007;241383.0;49438.0;292671.0;-16.92164034626702;29.324053822466187;-11.931637345751785;-830.2380924362201;583.3333333333334;-1413.5714257695533
0.11200000000000007;168624.0;109863.0;172688.0;-18.189674987536225;3.3624017804307327;-1.6739382059810812;-317.0086603173017;4083.3333333333335;-4400.341993650635
0.11600000000000008;98685.0;-87891.0;300822.0;-17.484931683853517;-40.25452830858138;51.728502745383864;176.185825920677;166.66666666666666;9.51915925401034
0.12000000000000008;0.0;-5493.0;146813.0;-24.671292718770868;26.38413120807216;-30.192908596836126;-1796.5902587293376;-2416.6666666666665;620.0764079373289
0.12400000000000008;0.0;82397.0;-22430.0;-5.308098257798301e-12;7.422723574350481;-29.914344476952568;6167.82317969139;416.6666666666667;5751.156513024724
0.12800000000000009;-54100.0;-126343.0;126921.0;-13.525161095136742;-40.088363346509965;37.42537628596988;-3381.2902737828585;0.0;-3381.2902737828585
0.1320000000000001;-83573.0;32959.0;-54409.0;-7.368202637865696;36.27568829509527;-47.0060256944521;1539.2396143177614;1083.3333333333333;455.9062809844281
0.1360000000000001;-105907.0;21973.0;-87442.0;-5.583491205028693;-16.874224428488162;-2.5249818500247194;446.1778582092508;-250.0;696.1778582092509
0.1400000000000001;-124097.0;-104370.0;12115.0;-4.547590553362564;-10.663832019932514;5.130203650609978;258.9751629165322;-1000.0;1258.9751629165323
0.1440000000000001;-140067.0;93384.0;-206372.0;-3.992339269540278;36.231668048711164;-61.2266101248537;138.81282095557157;2333.3333333333335;-2194.520512377762
0.1480000000000001;-154365.0;-65918.0;-64404.0;-3.5746035267825236;-41.18811358998901;30.67181776447982;104.4339356894386;-2250.0;2354.4339356894384
0.1520000000000001;-166782.0;-16479.0;-129163.0;-3.10412783434823;28.595345387990765;-44.824960388139715;117.61892310857336;583.3333333333334;-465.71441022476
0.1560000000000001;-177159.0;71411.0;-230615.0;-2.5944380515929173;6.2446897181189005;-31.77424465440164;127.42244568882822;1416.6666666666667;-1289.2442209778385
0.16000000000000011;-185651.0;-126343.0;-44481.0;-2.1228225567533645;-34.50145059419404;27.326474101295076;117.9038737098882;-2750.0;2867.903873709888
0.16400000000000012;-192609.0;60425.0;-240890.0;-1.7396707562055174;41.448093270001955;-66.98396961045393;95.78795013696178;2583.3333333333335;-2487.545383196372
0.16800000000000012;-198452.0;-21973.0;-166387.0;-1.4607988260513294;-32.25785651864299;14.311032292019888;69.71798253854699;-1166.6666666666667;1236.3846492052137
0.17200000000000013;-203538.0;-82397.0;-112488.0;-1.271298511742275;5.280272437738063;-17.71046786109269;47.37507857726359;-1083.3333333333333;1130.7084119105969
0.17600000000000013;-208092.0;82397.0;-282831.0;-1.1385741692968758;24.661528365184978;-53.20060329277092;33.1810856113498;2666.6666666666665;-2633.4855810553167
0.18000000000000013;-212214.0;-120850.0;-84464.0;-1.0304643566776546;-45.782515470171624;36.45418573298695;27.027453154805315;-2833.3333333333335;2860.3607864881387
0.18400000000000014;-215916.0;21973.0;-231673.0;-0.9256119998379453;43.05615143697761;-66.3932474364808;26.213089209927322;1750.0;-1723.7869107900726
0.18800000000000014;-219175.0;21973.0;-235631.0;-0.8145803975185292;-11.701441127933315;-11.908660363508787;27.757900579854027;333.3333333333333;-305.5754327534793
0.19200000000000014;-221959.0;-131836.0;-85350.0;-0.69598253656303;-20.30719841626378;11.231394342598342;29.649465238874797;-2250.0;2279.6494652388747
0.19600000000000015;-224246.0;76904.0;-297163.0;-0.5719270838101749;39.501442723014804;-68.7972994975509;31.01386318821378;3000.0;-2968.9861368117863
0.20000000000000015;-226026.0;-93384.0;-129465.0;-0.44496447390417665;-44.791346222618145;31.71521482536364;31.740652476499555;-2333.3333333333335;2365.073985809833
0.20400000000000015;-227293.0;-54932.0;-170006.0;-0.31682430086543856;20.219400990870845;-37.062292271062546;32.03504325968452;333.3333333333333;-301.2982900736488
0.20800000000000016;-228047.0;49438.0;-275956.0;-0.18832784564931201;3.5971839126403395;-30.48386273166728;32.12411380403164;1916.6666666666667;-1884.5425528626351
0.21200000000000016;-228286.0;-142822.0;-84763.0;-0.059756733177432506;-35.35897495724292;26.955098671787162;32.142778117969875;-2833.3333333333335;2865.4761114513035
0.21600000000000016;-228011.0;43945.0;-272082.0;0.06877891742164188;40.90103823570821;-67.15901455310333;32.1339126497686;2666.6666666666665;-2634.532754016898
0.22000000000000017;-227222.0;-43945.0;-184230.0;0.19713705681110166;-33.724242110181436;16.02861440773486;32.089534847364945;-1250.0;1282.089534847365
0.22400000000000017;-225922.0;-98877.0;-128822.0;0.3250906144414803;6.332513504298334;-18.580507728782425;31.98838940759466;-1166.6666666666667;1198.6550560742614
0.22800000000000017;-224112.0;71411.0;-298121.0;0.45235172353297715;23.27815174895024;-51.650651204286014;31.815277272874212;2833.3333333333335;-2801.5180560604595
0.23200000000000018;-221798.0;-131836.0;-93375.0;0.5786116997124122;-42.56451468232626;33.97531261019095;31.564994044858768;-3083.3333333333335;3114.8983273781923
0.23600000000000018;-218984.0;0.0;-223204.0;0.7035673894009693;38.54830399886306;-59.474221838148146;31.23892242213927;1916.6666666666667;-1885.4277442445275
0.24000000000000019;-215676.0;5493.0;-226188.0;0.8269297830760106;-14.139608310966782;-6.947024815339873;30.84059841876033;166.66666666666666;-135.82606824790633
0.2440000000000002;-211882.0;-137329.0;-80359.0;0.9484219745098716;-16.659428202941665;9.69671069165312;30.373047858465256;-2166.6666666666665;2197.039714525132
0.2480000000000002;-207611.0;71411.0;-285601.0;1.0677743352231657;39.586882086171045;-66.13020137403244;29.838090178323505;3083.3333333333335;-3053.49524315501
0.25200000000000017;-202872.0;-104370.0;-105840.0;1.1847213004980497;-43.06669824622704;33.90108969856992;29.236741318721005;-2500.0;2529.236741318721
0.25600000000000017;-197676.0;-54932.0;-150824.0;1.299000709721704;25.65700568044843;-39.02266703102866;28.569852305913578;583.3333333333334;-554.7634810274197
0.2600000000000002;-192035.0;32959.0;-233798.0;1.4103548317721335;0.9657032310934444;-22.180965166578645;27.838530512607374;1666.6666666666667;-1638.8281361540594
0.2640000000000002;-185961.0;-142822.0;-52647.0;1.5185318958363438;-26.360473446125724;22.648842719418848;27.04426601605259;-2916.6666666666665;2943.710932682719
0.2680000000000002;-179468.0;49438.0;-239097.0;1.6232873826682948;48.450128946098616;-69.95084806425054;26.188871707987726;2833.3333333333335;-2807.1444616253457
0.2720000000000002;-172570.0;-54932.0;-128489.0;1.7243848629062626;-32.60285564399532;21.827343603571297;25.274370059491957;-1333.3333333333333;1358.6077033928252
0.2760000000000002;-165284.0;-93384.0;-83386.0;1.8215964918788736;11.382034017957483;-17.72433286570362;24.30290724315276;-833.3333333333334;857.6362405764861
0.2800000000000002;-157625.0;60425.0;-230146.0;1.9147033567134535;21.600367268354162;-41.93204788154023;23.276716208644967;2583.3333333333335;-2560.0566171246887
0.2840000000000002;-149611.0;-137329.0;-24960.0;2.0034958191159866;-40.38095306171236;39.84273537131487;22.198115600633283;-3083.3333333333335;3105.5314489339667
0.2880000000000002;-141260.0;5493.0;-159985.0;2.0877739093726446;41.39085447982672;-54.800051847189025;21.0695225641645;2083.3333333333335;-2062.263810769169
0.2920000000000002;-132590.0;-5493.0;-140853.0;2.1673477640894903;-16.47263421408315;4.987136710806352;19.893463679211408;83.33333333333333;-63.43986965412192
0.2960000000000002;-123622.0;-131836.0;-6034.0;2.242038075613698;-11.584041375034165;13.123607257525462;18.67257788105192;-2083.3333333333335;2102.0059112143854
0.3000000000000002;-113616.0;76904.0;-205988.0;2.5015197623725123;40.707766245530834;-58.28611919301309;64.87042168970359;3000.0;-2935.1295783102964
0.3040000000000002;-99934.0;-115356.0;-4350.0;3.420476951068463;-47.922961976592546;49.849842848060675;229.73929717398767;-2500.0;2729.739297173988
0.3080000000000002;-79112.0;-43945.0;-64304.0;5.205525045623138;28.60990790465534;-31.91874037617931;446.2620236386687;666.6666666666666;-220.4046430279979
0.3120000000000002;-48099.0;32959.0;-124717.0;7.753383401096641;-0.5624890922366601;-7.287506793357938;636.9645888683757;1500.0;-863.0354111316243
0.3160000000000002;0.0;-142822.0;75885.0;12.024753667229986;-27.524190867311745;41.01440267441429;1067.8425665333361;-2833.3333333333335;3901.1758998666696
0.32000000000000023;59024.0;54932.0;-84141.0;14.756182482099938;44.30487395214955;-42.95042383824305;682.857203717488;3000.0;-2317.142796282512
0.32400000000000023;137514.0;-32959.0;56079.0;19.622467030943998;-33.227594168095976;51.69387312169354;1216.571137211015;-1250.0;2466.571137211015
0.32800000000000024;225533.0;-71411.0;161209.0;22.00465198010508;5.4354742457424114;26.71017355856599;595.5462372902707;-583.3333333333334;1178.879570623604
0.33200000000000024;314032.0;126343.0;45609.0;22.124900011616667;34.74003776782138;-9.823121012203227;30.06200787789659;2416.6666666666665;-2386.60465878877
0.33600000000000024;394100.0;-21973.0;282079.0;20.01688319876325;-38.949220841412796;88.06717517220024;-527.0042032133543;-1583.3333333333333;1056.3291301199788
0.34000000000000025;455545.0;-21973.0;367232.0;15.361356591103618;11.40655789547615;45.13611380929719;-1163.8816519149077;250.0;-1413.8816519149077
0.34400000000000025;489652.0;148315.0;269678.0;8.526669643519769;38.63462055851237;5.437858743929887;-1708.6717368959623;-333.3333333333333;-1375.338403562629
0.34800000000000025;493302.0;131836.0;336872.0;0.912456090267854;-8.011023406370931;53.02952389095787;-1903.5533883129788;1416.6666666666667;-3320.2200549796453
0.35200000000000026;468581.0;21973.0;468926.0;-6.180096846220346;-23.12023714163676;73.6849330772124;-1773.13823412205;1000.0;-2773.13823412205
0.35600000000000026;418366.0;-54932.0;538410.0;-12.553947985623099;-16.977857991147967;66.81020219577645;-1593.4627848506882;-4583.333333333333;2989.870548482645
0.36000000000000026;348989.0;-43945.0;492760.0;-17.3442526869985;3.5868712692876166;35.05241742650513;-1197.5761753438508;-2500.0;1302.4238246561492
0.36400000000000027;270203.0;-27466.0;418618.0;-19.69649673359556;2.7712482475197864;23.00019758529266;-588.0610116492644;2166.6666666666665;-2754.727678315931
0.36800000000000027;191491.0;-5493.0;323650.0;-19.677861428109956;3.152694109264339;9.668893384684274;4.658826371400693;2333.3333333333335;-2328.674506961933
0.3720000000000003;119933.0;0.0;239456.0;-17.889526023575748;1.8047450453703024;1.507705508443063;447.08385113355223;750.0;-302.91614886644777
0.3760000000000003;61736.0;0.0;163580.0;-14.549231925018232;0.017289286988996976;-3.282532861184916;835.073524639379;-333.3333333333333;1168.4068579727123
0.3800000000000003;0.0;0.0;97277.0;-15.434153399278735;0.3965069622321055;-7.633545095586028;-221.2303685651258;-333.3333333333333;112.10296476820753
0.3840000000000003;0.0;-5493.0;43092.0;4.463341836590959e-25;-2.797904759245295;-7.9849247391529286;3858.538349819684;-166.66666666666666;4025.2050164863504
0.3880000000000003;0.0;0.0;361.0;-0.0;0.21969289227379912;-9.494604540622134;-1.1158354591477396e-22;-83.33333333333333;83.33333333333333
0.3920000000000003;0.0;0.0;0.0;-0.0;0.02448480875033684;-0.11491930132423568;0.0;0.0;0.0
0.3960000000000003;0.0;0.0;0.0;-4.463341836590959e-25;-0.30298614070864194;0.30298614070864194;-1.1158354591477396e-22;0.0;-1.1158354591477396e-22
0.4000000000000003;0.0;10986.0;-10986.0;-0.0;4.5133455894199015;-5.568001589419902;1.1158354591477396e-22;0.0;1.1158354591477396e-22
0.4040000000000003;0.0;10986.0;-10986.0;-0.0;0.7481073175125923;-1.8027633175125923;0.0;166.66666666666666;-166.66666666666666
0.4080000000000003;0.0;10986.0;-10986.0;-0.0;0.08337668280681051;-1.1380326828068106;0.0;0.0;0.0
0.4120000000000003;0.0;10986.0;-10986.0;-0.0;0.009292344925834094;-1.0639483449258342;0.0;0.0;0.0
0.4160000000000003;0.0;10986.0;-10986.0;-0.0;0.00103563336071727;-1.0556916333607174;0.0;-166.66666666666666;166.66666666666666
0.4200000000000003;0.0;5493.0;-5493.0;-4.2108378198051516e-13;0.4988215305636737;-1.0261495305636736;-1.0527094549512879e-10;-83.33333333333333;83.33333333322805
0.4240000000000003;0.0;0.0;0.0;-4.196383224466793e-12;-0.37114645619951225;0.3711464561993453;-9.438248606215695e-10;-83.33333333333333;83.3333333323895
0.4280000000000003;0.0;10986.0;-10986.0;-2.0626074485129913e-11;0.2908265262249121;-1.3454825262268277;-4.10742281516578e-09;166.66666666666666;-166.66666667077408
0.43200000000000033;0.0;10986.0;-10986.0;-6.438645506975522e-11;-0.046730098303973185;-1.0079259017067153;-1.0940095146156327e-08;83.33333333333333;-83.33333334427343
0.43600000000000033;85678.0;10986.0;-10986.0;21.41965551287153;-0.13310564863635485;-0.9215503514015253;5354.913878233979;83.33333333333333;5271.580544900646
0.44000000000000034;144459.0;10986.0;22984.0;14.695274640800243;-0.21970533292207003;10.91872806161964;-1681.0952180178215;-166.66666666666666;-1514.428551351155
0.44400000000000034;210551.0;21973.0;86509.0;16.522981750879556;3.0290788093517222;23.90382296217356;456.92677751982825;83.33333333333333;373.59344418649493
0.44800000000000034;275631.0;16479.0;153840.0;16.270082918223483;-2.2531036158928264;32.48107623708822;-63.22470816401804;0.0;-63.22470816401804
0.45200000000000035;334681.0;-5493.0;241460.0;14.762352028582116;-8.070694587277202;47.662856681204765;-376.9327224103418;-166.66666666666666;-210.26605574367517
0.45600000000000035;384557.0;-21973.0;320635.0;12.469057080685065;-5.424281973220864;51.87901498109428;-573.3237369742627;-583.3333333333334;10.009596359070617
0.46000000000000035;420038.0;-32959.0;387069.0;8.870293877356163;-2.619746541808379;53.64030131696436;-899.6908008322255;-250.0;-649.6908008322255
0.46400000000000036;435231.0;-5493.0;403825.0;3.798070044859976;8.927898130505076;40.89494284582046;-1268.0559581240468;166.66666666666666;-1434.7226247907136
0.46800000000000036;427649.0;93384.0;332470.0;-1.8952989689921236;25.445587217519577;13.351855666893737;-1423.342253463025;1833.3333333333333;-3256.675586796358
0.47200000000000036;397941.0;197754.0;234381.0;-7.4270337408407086;22.356816326552263;1.714217924724732;-1382.9336929621463;2500.0;-3882.9336929621463
0.47600000000000037;348567.0;131836.0;284078.0;-12.343539780975748;-23.397443817729044;46.61374602912031;-1229.1265100337598;666.6666666666666;-1895.7931767004266
0.48000000000000037;284669.0;-21973.0;400511.0;-15.974472019655018;-36.782471295382194;65.88758823846361;-907.7330596698174;-4083.3333333333335;3175.600273663516
0.4840000000000004;214206.0;43945.0;279576.0;-17.615767191269175;22.237085802482458;-9.152129830199389;-410.32379290353924;-3583.3333333333335;3173.009540429794
0.4880000000000004;145147.0;170288.0;86817.0;-17.26487521278436;20.28535549348858;-28.55486840986554;87.72299462120347;2250.0;-2162.2770053787967
0.4920000000000004;82907.0;-32959.0;220196.0;-15.559924722517652;-44.64119276075083;48.312981720159904;426.2376225666773;1583.3333333333333;-1157.0957107666559
0.4960000000000004;0.0;21973.0;98901.0;-20.726856217130322;24.6841558300963;-31.780604821027758;-1291.7328736531676;-1000.0;-291.7328736531677
0.5000000000000003;0.0;126343.0;-75944.0;-3.689140150644764e-12;11.23373466964621;-36.14288094075209;5181.714054281659;166.66666666666666;5015.047387614992
0.5040000000000003;0.0;-76904.0;77389.0;-1.4143705107899714e-12;-41.51316705254602;36.463804457604255;5.686924099636982e-10;-583.3333333333334;583.333333333902
0.5080000000000003;-64556.0;82397.0;-82397.0;-16.1392116194179;45.638872151133285;-53.6704305742833;-4034.802904854121;1333.3333333333333;-5368.136238187454
0.5120000000000003;-84082.0;65918.0;-91513.0;-4.881422334272314;-18.59550020398396;3.41130697206545;2814.4473212863963;0.0;2814.4473212863963
0.5160000000000003;-101616.0;-71411.0;-508.0;-4.3834363470572315;-16.297962627243873;4.668086249511138;124.49649680377073;-1416.6666666666667;1541.1631634704374
0.5200000000000004;-117735.0;131836.0;-222755.0;-4.029855388625044;38.76594430262218;-64.90036658308742;88.39523960804696;2583.3333333333335;-2494.9380937252863
