Zeit[sec];Sollposition[°];Istposition[°];Positionsschleppfehler[°];Sollgeschwindigkeit[°/s];Istgeschwindigkeit[°/s];Geschwindigkeitsdifferenz[°/s];Sollbeschleunigung[°/s*s];Istbeschleunigung[°/s*s];Beschleunigungsdifferenz[°/s*s]
0.0;0.0;-27466.0;27466.0;-0.0;-0.72094321580811;3.35767921580811;0.0;0.0;0.0
0.004;0.0;-27466.0;27466.0;-0.0;-0.051610006135027746;2.6883460061350277;0.0;0.0;0.0
0.008;0.0;-32959.0;32959.0;-0.0;-2.68593973457131;5.85000373457131;0.0;0.0;0.0
0.012;0.0;-27466.0;27466.0;-0.0;-0.033620836656119236;2.670356836656119;0.0;0.0;0.0
0.016;0.0;-21973.0;21973.0;-0.0;2.2850490550089138;-0.17564105500891403;0.0;0.0;0.0
0.02;0.0;-27466.0;27466.0;-0.0;-1.9216550505485916;4.558391050548591;0.0;0.0;0.0
0.024;0.0;-27466.0;27466.0;-0.0;-0.6842080279917044;3.3209440279917044;0.0;0.0;0.0
0.028;0.0;-32959.0;32959.0;-0.0;-2.8889413490621068;6.053005349062107;0.0;0.0;0.0
0.032;0.0;-27466.0;27466.0;-0.0;-0.34949420959432875;2.9862302095943285;0.0;0.0;0.0
0.036000000000000004;0.0;-27466.0;27466.0;-0.0;0.16231178104061747;2.4744242189593826;0.0;0.0;0.0
0.04000000000000001;0.0;-27466.0;27466.0;-0.0;-0.9722718837386639;3.6090078837386637;0.0;0.0;0.0
0.04400000000000001;0.0;-27466.0;27466.0;-0.0;0.09187089270783949;2.5448651072921606;0.0;0.0;0.0
0.048000000000000015;-2187.0;-21973.0;21973.0;-0.5468696740294771;3.0470871476175763;-0.9376791476175765;-136.71741850736927;0.0;-136.71741850736927
0.05200000000000002;-125676.0;-27466.0;26599.0;-30.872353695160374;0.2781289784560627;2.0585497406299065;-7581.371005282725;0.0;-7581.371005282725
0.05600000000000002;-548240.0;-27466.0;-23670.0;-105.64084387187988;0.6307175786082054;-15.470283516831987;-18692.122544179878;0.0;-18692.122544179878
0.060000000000000026;-1538814.0;-71411.0;-221081.0;-247.64355076328485;-11.23345815991062;-70.3295212497237;-35500.67672285124;-333.3333333333333;-35167.34338951791
0.06400000000000003;-3275378.0;-302124.0;-636387.0;-434.1408612245253;-68.92210469404533;-153.67564904585225;-46624.32761531011;-2250.0;-44374.32761531011
0.06800000000000003;-6138033.0;-1395264.0;-826266.0;-715.6639408784735;-293.74298710034833;-106.33332212965058;-70380.76991348705;-12750.0;-57630.76991348704
0.07200000000000004;-10616741.0;-3290405.0;-1109796.0;-1119.6768333601735;-477.7699521998847;-173.43806963082744;-101003.22312042501;-31916.666666666668;-69086.55645375836
0.07600000000000004;-17229685.0;-6168823.0;-1728174.0;-1653.2358846110521;-752.9621773620206;-287.14171738915456;-133389.76281271965;-46083.333333333336;-87306.42947938632
0.08000000000000004;-26550617.0;-11085205.0;-2127222.0;-2330.2328445996554;-1267.2709126171785;-265.7997966619075;-169249.2399971508;-67666.66666666667;-101582.57333048416
0.08400000000000005;-39164811.0;-18369141.0;-2517400.0;-3153.548396613068;-1852.9862031979317;-307.2124754051781;-205828.8880033531;-95333.33333333333;-110495.55467001976
0.08800000000000005;-55600745.0;-28438110.0;-3059223.0;-4108.983379129962;-2577.6825178806043;-368.70070772443523;-238858.74562922344;-131666.66666666666;-107192.07896255678
0.09200000000000005;-76320499.0;-42160034.0;-3447457.0;-5179.938239042368;-3470.1165353866;-388.37866056023495;-267738.7149781016;-168416.66666666666;-99322.04831143495
0.09600000000000006;-101728673.0;-59869995.0;-3849504.0;-6352.043249701507;-4476.96023825584;-420.5941413090186;-293026.2526647848;-200166.66666666666;-92859.58599811816
0.10000000000000006;-132141923.0;-82078857.0;-4194181.0;-7603.312055992726;-5611.503661138328;-429.5221503572966;-312817.2015728046;-236333.33333333334;-76483.86823947127
0.10400000000000006;-167777806.0;-109187622.0;-4450553.0;-8908.97028836846;-6866.5907143473105;-401.94635117673624;-326414.5580939337;-264333.3333333333;-62081.22476060038
0.10800000000000007;-208782120.0;-141806030.0;-4286761.0;-10251.077963025455;-8231.490969447144;-293.6915776108144;-335526.91866424854;-296166.6666666667;-39360.25199758189
0.11200000000000007;-255246622.0;-179252930.0;-4573642.0;-11616.12499274757;-9421.473541123807;-451.04076060840634;-341261.75743052864;-316833.3333333333;-24428.42409719532
0.11600000000000008;-307215010.0;-221621704.0;-5342605.0;-12992.09636500162;-10679.583629628454;-617.7403196657888;-343992.84306351276;-317916.6666666667;-26076.17639684605
0.12000000000000008;-364668100.0;-270049438.0;-5529585.0;-14363.271968397643;-12144.275092561174;-540.2428872926539;-342793.9008490057;-324833.3333333333;-17960.56751567238
0.12400000000000008;-427488728.0;-324299927.0;-5389833.0;-15705.156144209033;-13623.587386034356;-421.52031683567657;-335471.0439528476;-337416.6666666667;1945.6227138190916
0.12800000000000009;-495467973.0;-383505249.0;-5733609.0;-16994.810368812978;-14802.523704805586;-635.1766043098796;-322413.5561509861;-356416.6666666667;34003.110515680586
0.1320000000000001;-568332247.0;-447819214.0;-6254133.0;-18216.067735587923;-16189.957886588401;-619.060172236188;-305314.34169373644;-333750.0;28435.658306263576
0.1360000000000001;-645731673.0;-518615112.0;-5344091.0;-19349.85550648383;-17706.794991328472;-277.7010095421283;-283446.94272397645;-342083.3333333333;58636.39060935685
0.1400000000000001;-727233658.0;-592415771.0;-6177200.0;-20375.495230100456;-18464.96408544307;-786.4881809877115;-256409.93090415667;-324250.0;67840.06909584333
0.1440000000000001;-812347457.0;-671605225.0;-5987199.0;-21278.448973215527;-19946.803601024138;-377.82984653290623;-225738.43577876777;-303166.6666666667;77428.23088789891
0.1480000000000001;-900545104.0;-755161743.0;-5340656.0;-22049.41058568628;-20813.073368109828;-427.1222807279373;-192740.4031176884;-296000.0;103259.5968823116
0.1520000000000001;-991268851.0;-840921021.0;-5896711.0;-22680.93556264797;-21537.823570244396;-607.0931474520148;-157881.24424042235;-246333.33333333334;88452.08909291099
0.1560000000000001;-1083964623.0;-930717773.0;-5281096.0;-23173.942061876045;-22386.43039890082;-415.83783537491763;-123251.62480701874;-250083.33333333334;126831.7085263146
0.16000000000000011;-1178145745.0;-1022294312.0;-5195380.0;-23545.27939280538;-22949.25650770056;-422.20456700291106;-92834.33273233369;-178083.33333333334;85249.00060099966
0.16400000000000012;-1273406550.0;-1115930786.0;-4832041.0;-23815.199954555264;-23410.580541813888;-371.5781956734172;-67480.14043747116;-174500.0;107019.85956252884
0.16800000000000012;-1369402431.0;-1211242676.0;-4120647.0;-23998.96925786269;-23803.972673556775;-241.7323118002205;-45942.32582685618;-134416.66666666666;88474.34083981048
0.17200000000000013;-1465867785.0;-1306417236.0;-4492012.0;-24116.33740332551;-23833.239031737485;-484.4741663922723;-29342.0363657051;-97083.33333333333;67741.29696762824
0.17600000000000013;-1562623132.0;-1403052979.0;-4033982.0;-24188.835480399513;-24111.035458576793;-320.65393382307957;-18124.51926850099;-67416.66666666667;49292.14739816568
0.18000000000000013;-1659545534.0;-1499699707.0;-3964835.0;-24230.599444392854;-24191.455493922007;-333.562720203583;-10440.99099833511;-41916.666666666664;31475.675668331554
0.18400000000000014;-1756547657.0;-1596676025.0;-3808399.0;-24250.529510103825;-24224.26940864268;-346.3063414978933;-4982.516427742667;-35000.0;30017.483572257333
0.18800000000000014;-1853573122.0;-1693981934.0;-3455521.0;-24256.365079730116;-24319.562391412976;-250.42431790046612;-1458.892406572886;-22750.0;21291.107593427114
0.19200000000000014;-1950592655.0;-1791002197.0;-3446169.0;-24254.882034981183;-24273.103274226465;-310.4553943246501;370.76118723325635;-12500.0;12870.761187233256
0.19600000000000015;-2047596781.0;-1888851929.0;-2619413.0;-24251.030553243247;-24416.766313378743;-90.44021749021704;962.8704344841026;-11416.666666666666;12379.537101150769
0.20000000000000015;-2144587176.0;-1985421753.0;-3063048.0;-24247.597530353443;-24193.283250707467;-354.1330296593587;858.2557224508491;-1166.6666666666667;2024.9223891175159
0.20400000000000015;-2241563704.0;-2083018799.0;-2464775.0;-24244.13090366214;-24371.838181018495;-114.47219956578556;866.6566728261387;1166.6666666666667;-300.00999384052807
0.20800000000000016;-2338509255.0;-2180341187.0;-2127364.0;-24236.38648470486;-24382.509798651572;-67.96032775326967;1936.1047393194895;2416.6666666666665;-480.56192734717706
0.21200000000000016;-2435388862.0;-2277366943.0;-2065935.0;-24219.900747253127;-24184.950454205646;-254.45998061227147;4121.434362933542;-6750.0;10871.434362933542
0.21600000000000016;-2532141042.0;-2374810181.0;-1542284.0;-24188.04370882783;-24399.513875137243;21.55908628756515;7964.259606324049;4666.666666666667;3297.592939657382
0.22000000000000017;-2628646599.0;-2471412964.0;-1768972.0;-24126.388229839977;-24135.319627820616;-241.86820958095996;15413.869746963428;1083.3333333333333;14330.536413630094
0.22400000000000017;-2724731825.0;-2568598022.0;-1239058.0;-24021.305309048264;-24307.048595418994;24.314090308442246;26270.73019792806;16416.666666666668;9854.063531261392
0.22800000000000017;-2820204155.0;-2664689941.0;-1487487.0;-23868.08133575082;-24050.3887935073;-177.49571473155083;38305.993324361225;2666.6666666666665;35639.32665769456
0.23200000000000018;-2914863143.0;-2760710449.0;-1311664.0;-23664.745765356798;-23955.283707567432;-131.8061544320044;50833.89259850537;25000.0;25833.892598505372
0.23600000000000018;-3008494088.0;-2855978394.0;-1197162.0;-23407.735249097546;-23859.771635980786;-43.51567194566451;64252.629064812936;24750.0;39502.629064812936
0.24000000000000019;-3100871642.0;-2950559692.0;-872015.0;-23094.38739624471;-23552.14560286096;-95.60436794614361;78336.96321320895;32333.333333333332;46003.62987987562
0.2440000000000002;-3191731098.0;-3043707275.0;-864451.0;-22714.86291841231;-23361.80558214734;-6.185356347999914;94881.11945810032;54500.0;40381.11945810033
0.2480000000000002;-3280871828.0;-3135498047.0;-856674.0;-22285.18134633254;-22854.179806002343;-173.8087914270509;107420.39301994191;55000.0;52420.39301994191
0.25200000000000017;-3368122391.0;-3226041870.0;-499755.0;-21812.63967225325;-22688.68697885554;93.98583376100214;118135.41851982244;92416.66666666667;25718.75185315578
0.25600000000000017;-3453329175.0;-3314888306.0;-54698.0;-21301.695094009534;-22146.979205891934;41.38457640675915;127736.14456092946;72666.66666666667;55069.47789426279
0.2600000000000002;-3536367007.0;-3401625366.0;231051.0;-20759.456955889105;-21683.269868468855;92.62383510870859;135559.53453010716;109250.0;26309.534530107157
0.2640000000000002;-3617077414.0;-3486110229.0;357110.0;-20177.60092414345;-21111.605945362637;56.18854475883563;145464.00793641352;107083.33333333333;38380.67460308018
0.2680000000000002;-3695456715.0;-3568754883.0;874011.0;-19594.824366788944;-20652.903793628248;204.87154223527614;145694.13933862688;135583.33333333334;10110.80600529354
0.2720000000000002;-3771338422.0;-3648477173.0;796503.0;-18970.425812687623;-19907.577596527313;34.09344680522918;156099.6385253302;132250.0;23849.638525330192
0.2760000000000002;-3844619425.0;-3726051636.0;968264.0;-18320.24979275466;-19381.935241429655;124.21378272370202;162544.00498324048;148666.66666666666;13877.338316573827
0.2800000000000002;-3915224381.0;-3801154175.0;1205600.0;-17651.238272767798;-18710.39548979242;109.83332472995244;167252.8799967158;146416.66666666666;20836.213330049162
0.2840000000000002;-3983097145.0;-3873630981.0;1447175.0;-16968.190044278457;-18111.93426395905;192.0562604574152;170762.05712233513;159416.66666666666;11345.39045566848
0.2880000000000002;-4048192573.0;-3943657837.0;1936667.0;-16273.85634440587;-17470.41032566647;271.9900454912313;173583.42496814704;150416.66666666666;23166.75830148037
0.2920000000000002;-4110469957.0;-4010416260.0;1907487.0;-15569.34521857081;-16674.24777296571;160.46670800886204;176127.78145876474;169000.0;7127.78145876473
0.2960000000000002;-4169889372.0;-4074444580.0;1941416.0;-14854.85301068721;-15972.250130151711;160.02901363047386;178623.05197090018;171833.33333333334;6789.718637566835
0.3000000000000002;-4226410422.0;-4135391235.0;1727315.0;-14130.261936302268;-15238.490523032628;114.12454606897882;181147.76859623543;185750.0;-4602.231403764563
0.3040000000000002;-4279992338.0;-4194299927.0;2349002.0;-13395.478174129603;-14694.26942363543;348.02316642577534;183695.94054316622;175166.66666666666;8529.27387649956
0.3080000000000002;-4330594033.0;-4249824829.0;2501193.0;-12650.423188668221;-13812.214642958026;209.15186453445494;186263.74636534546;168000.0;18263.74636534547
0.3120000000000002;-4378174538.0;-4301982422.0;2241259.0;-11895.125812925406;-13058.8123807701;169.5923572853535;188824.34393570383;182583.33333333334;6241.010602370494
0.3160000000000002;-4422694006.0;-4351865845.0;2703379.0;-11129.86629160593;-12447.960895679444;352.1601424163691;191314.88032986908;185833.33333333334;5481.546996535741
0.32000000000000023;-4464113428.0;-4398607178.0;3060159.0;-10354.8551781363;-11636.454008923956;334.09133246073543;193752.77836740724;185916.66666666666;7836.111700740588
0.32400000000000023;-4502394580.0;-4441887817.0;3032514.0;-9570.287542400074;-10789.459813429323;253.51072025769463;196141.90893405658;181000.0;15141.908934056573
0.32800000000000024;-4537501385.0;-4482597656.0;3549042.0;-8776.700809382133;-10156.261688664132;448.6422704849374;198396.6832544852;190083.33333333334;8313.349921151854
0.33200000000000024;-4569399335.0;-4519995117.0;3905541.0;-7974.487122916906;-9280.121368432377;394.81342589063206;200553.42161630688;192083.33333333334;8470.088282973535
0.33600000000000024;-4598072326.0;-4553421021.0;3478301.0;-7168.247291052571;-8340.019813475938;210.65116992468938;201559.95796608363;201083.33333333334;476.62463275028676
0.34000000000000025;-4623548635.0;-4584144287.0;3563461.0;-6369.0769170793055;-7659.296384649627;341.8625427505076;199792.5934933164;206416.66666666666;-6624.07317335024
0.34400000000000025;-4645881312.0;-4611769409.0;3764130.0;-5583.169115964355;-6853.762825951126;359.0065196269288;196476.9502787376;207166.66666666666;-10689.716387929053
0.34800000000000025;-4665158246.0;-4636082153.0;3828236.0;-4819.23335623638;-6033.468367270976;338.8196306144073;190983.93993199375;195166.66666666666;-4182.726734672911
0.35200000000000026;-4681567948.0;-4657390137.0;3996677.0;-4102.425145775831;-5303.703361645613;402.4989013950162;179202.0526151373;193250.0;-14047.94738486271
0.35600000000000026;-4695363129.0;-4675748291.0;4196805.0;-3448.795092389526;-4537.730527680378;401.11752067109865;163407.51334657625;194750.0;-31342.486653423748
0.36000000000000026;-4706770467.0;-4691112671.0;4171300.0;-2851.8345377105193;-3821.831473748244;374.805183062349;149240.13866975167;191000.0;-41759.86133024833
0.36400000000000027;-4715992438.0;-4703900757.0;4095628.0;-2305.4924245595066;-3169.661232007664;346.90209644553715;136585.52828775317;180416.66666666666;-43831.13837891349
0.36800000000000027;-4723254162.0;-4714486084.0;4126089.0;-1815.4309697169967;-2620.1639638748693;377.55226568321496;122515.36371062747;171916.66666666666;-49401.30295603919
0.3720000000000003;-4728809944.0;-4722868652.0;4051089.0;-1388.9454720993285;-2083.396429106109;357.9090348621967;106621.37440441706;152333.33333333334;-45711.95892891629
0.3760000000000003;-4732922783.0;-4729663696.0;4249302.0;-1028.209790856639;-1685.6556973609254;444.3811017765288;90183.92031067236;135666.66666666666;-45482.74635599429
0.3800000000000003;-4735872554.0;-4734821777.0;4413710.0;-737.4427406123745;-1278.0981192787626;453.395929834449;72691.76256106615;118000.0;-45308.237438933844
0.3840000000000003;-4737865062.0;-4738568115.0;4499893.0;-498.1267993797398;-927.7638070025594;444.7146507003343;59828.98530815866;104416.66666666667;-44587.68135850801
0.3880000000000003;-4739037803.0;-4741166382.0;4521114.0;-293.185173649419;-635.8338312116899;425.59935280145703;51235.40643258019;91166.66666666667;-39931.26023408648
0.3920000000000003;-4739673512.0;-4742726440.0;4408079.0;-158.92740265152662;-381.7376630051844;386.64035817148095;33564.4427494731;81333.33333333333;-47768.89058386023
0.3960000000000003;-4739999610.0;-4743638306.0;4355326.0;-81.52437030242561;-230.42919734453037;407.38559827972915;19350.75808727525;67250.0;-47899.24191272475
0.4000000000000003;-4740130601.0;-4744182129.0;4383049.0;-32.747826780571884;-131.0510040667206;422.7987316923709;12194.135880463431;50583.333333333336;-38389.19745286991
0.4040000000000003;-4740132064.0;-4744297485.0;4247850.0;-0.3658409915166927;-21.87035719551146;367.025190873289;8095.496447263798;35666.666666666664;-27571.170219402866
0.4080000000000003;-4740083817.0;-4744237061.0;4106647.0;12.061852268658377;9.917714125804602;364.12572243071344;3106.9233150437676;25000.0;-21893.07668495623
0.4120000000000003;-4740034481.0;-4744116211.0;4003286.0;12.33396122031323;31.920683374382556;356.7665796311004;68.02723791371301;16666.666666666668;-16598.639428752955
0.4160000000000003;-4739993785.0;-4743890991.0;3826453.0;10.174101235745557;64.1362222205177;315.30018648050947;-539.9649961419182;10250.0;-10789.964996141918
0.4200000000000003;-4739999486.0;-4743566895.0;3548261.0;-1.4253435812033677;81.87076474509388;270.23830735085005;-2899.861204237231;5583.333333333333;-8483.194537570564
0.4240000000000003;-4740002149.0;-4743347168.0;3350884.0;-0.6656360428479501;51.79959891152382;275.47302312529393;189.9268845888544;4416.666666666667;-4226.739782077812
0.4280000000000003;-4740002456.0;-4743270264.0;3269756.0;-0.07684668884262458;25.639398976765573;287.20101110761016;147.1973385013314;-750.0;897.1973385013314
0.43200000000000033;-4740000305.0;-4743143921.0;3141666.0;0.5378414231091341;32.71363189757988;268.4496624273008;153.67202798793966;-3916.6666666666665;4070.338694654606
0.43600000000000033;-4739840378.0;-4742979126.0;2977526.0;39.98165238841902;39.886097077135;246.11981652824022;9860.952741327472;-2833.3333333333335;12694.286074660806
0.44000000000000034;-4739353988.0;-4742918701.0;2981793.0;121.59758002385557;18.755429284833372;283.6697931883319;20403.981908859136;-416.6666666666667;20820.648575525804
0.44400000000000034;-4738258089.0;-4742687988.0;3039520.0;273.97467500155466;70.27328329422325;293.6306130728619;38094.27374442477;333.3333333333333;37760.94041109144
0.44800000000000034;-4736402489.0;-4741979370.0;3057040.0;463.8999362530892;190.24396887979285;284.7663700846458;47481.315312883635;6166.666666666667;41314.64864621697
0.45200000000000035;-4733658378.0;-4740617065.0;3088272.0;686.0277340429806;342.4109666435085;302.4473843211885;55531.94944747284;19916.666666666668;35615.28278080617
0.45600000000000035;-4729846877.0;-4738590088.0;3264724.0;952.8752263125344;510.8352536405027;353.43554436182666;66711.87306738847;32916.666666666664;33795.2064007218
0.46000000000000035;-4724704132.0;-4735656738.0;3493483.0;1285.6862061813617;754.4332856337093;371.468147536919;83202.74496720683;41416.666666666664;41786.07830054016
0.46400000000000036;-4717884242.0;-4731317139.0;3486948.0;1704.9723957791616;1101.9702695513852;316.04275858256847;104821.54739944996;53750.0;51071.54739944997
0.46800000000000036;-4709047364.0;-4725609741.0;3579457.0;2209.21928171776;1441.6777973979115;351.92663927709737;126061.72148464964;69833.33333333333;56228.38815131631
0.47200000000000036;-4697946322.0;-4718193970.0;3773453.0;2775.2603739553815;1894.9297350398936;369.7634051391035;141510.27305940533;84833.33333333333;56676.93972607201
0.47600000000000037;-4684383436.0;-4708454590.0;3756838.0;3390.721457864182;2461.8299043470956;329.51770245341186;153865.27097720013;103333.33333333333;50531.93764386678
0.48000000000000037;-4668160330.0;-4696523438.0;3889544.0;4055.7762904899305;3009.9658796767444;379.39477444422164;166263.70815643715;121666.66666666667;44597.04148977046
0.4840000000000004;-4649118751.0;-4681735840.0;3705143.0;4760.3943869053755;3717.9036250210443;288.58919320895166;176154.52410386127;142750.0;33404.524103861266
0.4880000000000004;-4627142032.0;-4664520264.0;3814566.0;5494.17971813984;4320.950539514646;376.4973468863527;183446.33280861605;155750.0;27696.332808616033
