Zeit[sec];Sollposition[°];Istposition[°];Positionsschleppfehler[°];Sollgeschwindigkeit[°/s];Istgeschwindigkeit[°/s];Geschwindigkeitsdifferenz[°/s];Sollbeschleunigung[°/s*s];Istbeschleunigung[°/s*s];Beschleunigungsdifferenz[°/s*s]
0.0;-8664606337.0;-8664818115.0;211567.0;0.0317048395330791;-0.00641745150834322;12.721200767179495;-0.8656360054315748;0.0;-0.8656360054315748
0.004;-8664606263.0;-8664812622.0;206208.0;0.018470094641140678;2.4030694871246814;10.003068925471073;-3.3086862229846057;0.0;-3.3086862229846057
0.008;-8664606238.0;-8664818115.0;211808.0;0.006243488083146749;-0.15367291249334813;12.88863067079285;-3.056651639498482;0.0;-3.056651639498482
0.012;-8664606242.0;-8664812622.0;206369.0;-0.000944556249993905;1.3775488190501928;11.01829116449568;-1.7970110832851636;0.0;-1.7970110832851636
0.016;-8664606256.0;-8664812622.0;206382.0;-0.003385899781985925;0.9765322068631649;11.409852974303085;-0.610335882998005;0.0;-0.610335882998005
0.02;-8664606268.0;-8664812622.0;206375.0;-0.003014481239479787;0.6084554759562015;11.772174130760853;0.09285463562653455;0.0;0.09285463562653455
0.024;-8664606274.0;-8664812622.0;206361.0;-0.0016815245757866954;0.2984594148471952;12.07997625180798;0.3332391659232729;0.0;0.3332391659232729
0.028;-8664606276.0;-8664812622.0;206352.0;-0.0004917496070542136;0.03326335056126118;12.345368488522327;0.2974437421831205;0.0;0.2974437421831205
0.032;-8664606276.0;-8664812622.0;206347.0;0.00017433153714257652;0.0037072058618068697;12.375895186513587;0.16652028604919752;0.0;0.16652028604919752
0.036000000000000004;-8664606033.0;-8664812622.0;206346.0;0.06067770765673061;0.0004131686985492706;12.3801122011834;15.125844029897008;0.0;15.125844029897008
0.04000000000000001;-8664603628.0;-8664812622.0;206443.0;0.6012996329305803;4.6047717332839966e-05;12.410693024324381;135.15548131846242;0.0;135.15548131846242
0.04400000000000001;-8664591811.0;-8664812622.0;207542.0;2.9541729817295304;-1.1874030742123722;13.914594416098218;588.2183371997376;0.0;588.2183371997376
0.048000000000000015;-8664552766.0;-8664807129.0;208173.0;9.761316060478306;0.818751025184989;13.202638420330201;1701.7857696871938;0.0;1701.7857696871938
0.05200000000000002;-8664453780.0;-8664812622.0;236223.0;24.74642387239536;-3.532315407268703;23.345007890902828;3746.276952979264;0.0;3746.276952979264
0.05600000000000002;-8664246949.0;-8664807129.0;293382.0;51.70782146283655;-0.9102375713810325;34.175949133072415;6740.349397610297;0.0;6740.349397610297
0.060000000000000026;-8663873814.0;-8664796143.0;423789.0;93.28367731970745;1.657162906244397;59.11857047281791;10393.963964217726;83.33333333333333;10310.630630884392
0.06400000000000003;-8663271377.0;-8664763184.0;662966.0;150.60936228097617;6.0452604042813185;101.76672134401562;14331.42124031718;500.0;13831.42124031718
0.06800000000000003;-8662375264.0;-8664691772.0;1054630.0;224.02811632838805;21.891631417922675;157.15497574465374;18354.68851185297;750.0;17604.68851185297
0.07200000000000004;-8661120646.0;-8664598389.0;1678778.0;313.6544630005797;26.70077157304436;253.40876683447024;22406.586668047916;1666.6666666666667;20739.920001381248
0.07600000000000004;-8659444494.0;-8664400635.0;2517558.0;419.0381082512161;54.68841210179031;355.4984422584956;26345.911312659096;2333.3333333333335;24012.577979325764
0.08000000000000004;-8657289995.0;-8663708496.0;3245068.0;538.6246709502084;195.91092466890066;353.7054326791398;29896.64067474807;7416.666666666667;22479.974008081404
0.08400000000000005;-8654610587.0;-8661950684.0;3350595.0;669.8519074265307;448.40016559617965;218.4703639287531;32806.809119080586;24000.0;8806.809119080583
0.08800000000000005;-8651372395.0;-8659544678.0;3304403.0;809.5479444090047;603.4829232577682;184.73477401387652;34924.009245618494;41583.333333333336;-6659.324087714844
0.09200000000000005;-8647555633.0;-8656671753.0;3329360.0;954.1905333825653;731.8610035860091;192.37089016484913;36160.64724339014;46500.0;-10339.352756609856
0.09600000000000006;-8643154235.0;-8653040771.0;3162690.0;1100.3495007360027;916.0555671623051;139.7837722676063;36539.74183835936;42166.666666666664;-5626.924828307303
0.10000000000000006;-8638173060.0;-8648701172.0;2868262.0;1245.2935094421005;1085.4261084179134;97.9623766166867;36236.00217652444;39166.666666666664;-2930.6644901422274
0.10400000000000006;-8632623928.0;-8643795776.0;2590711.0;1387.2830443073833;1229.0395061589704;83.36428907958748;35497.38371632071;41833.333333333336;-6335.949617012624
0.10800000000000007;-8626522100.0;-8638357544.0;2355442.0;1525.4569741547002;1369.152492192559;72.91488793605163;34543.482461829226;39750.0;-5206.517538170772
0.11200000000000007;-8619884032.0;-8632210693.0;1973531.0;1659.5169800725953;1539.4223321892916;20.22440640403397;33515.001479473765;37333.333333333336;-3818.3318538595686
0.11600000000000008;-8612726420.0;-8625750732.0;1824770.0;1789.4027048802832;1620.6021747183056;66.68408422510129;32471.431201921972;35333.333333333336;-2861.9021314113625
0.12000000000000008;-8605066070.0;-8618719482.0;1634437.0;1915.0875887454738;1770.4545495065004;37.8408031407032;31421.220966297653;32333.333333333332;-912.1123670356787
0.12400000000000008;-8596920071.0;-8611072998.0;1341849.0;2036.4995336260522;1921.5359309389144;-2.551242601079821;30352.9862201446;32250.0;-1897.0137798553992
0.12800000000000009;-8588306034.0;-8602954102.0;1072909.0;2153.5092115231278;2035.1064628968463;-8.242829934231167;29252.419474268892;32916.666666666664;-3664.2471923977737
0.1320000000000001;-8579242203.0;-8594648438.0;1095969.0;2265.957482653902;2074.2039095947816;73.73487492674258;28112.067782693543;31666.666666666668;-3554.5988839731244
0.1360000000000001;-8569747438.0;-8585798950.0;1036111.0;2373.6912788386035;2215.6939160764477;43.880334364333976;26933.44904617538;25000.0;1933.449046175383
0.1400000000000001;-8559841114.0;-8576438599.0;907815.0;2476.5809695096455;2350.2061627754347;12.27611013650585;25722.422667760497;24750.0;972.4226677604975
0.1440000000000001;-8549543007.0;-8566743164.0;867796.0;2574.5266405224374;2428.2129303181955;37.709010507944186;24486.417753198;27416.666666666668;-2930.2489134686703
0.1480000000000001;-8538873160.0;-8556723633.0;907514.0;2667.4615752702803;2523.9275683223195;45.3353000615607;23233.733686960702;26666.666666666668;-3432.9329797059636
0.1520000000000001;-8527851764.0;-8546116333.0;743414.0;2755.3487571252454;2659.5090066668877;-4.104177041329422;21971.795463741273;25666.666666666668;-3694.8712029253948
0.1560000000000001;-8516499066.0;-8535184937.0;619071.0;2838.1743817654265;2721.533443650078;17.37374535520803;20706.406160045277;26416.666666666668;-5710.260506621392
0.16000000000000011;-8504835278.0;-8524039307.0;624133.0;2915.9469418113504;2794.2152274860555;30.905611702418355;19443.140011480977;24583.333333333332;-5140.1933218523545
0.16400000000000012;-8492880486.0;-8512443237.0;502162.0;2988.6977729093796;2914.308277048264;-15.653876815328204;18187.70777450732;21083.333333333332;-2895.6255588260155
0.16800000000000012;-8480654580.0;-8500501099.0;337368.0;3056.4764922870118;2985.955515962478;-21.377624946485867;16944.679844408027;20666.666666666668;-3721.986822258639
0.17200000000000013;-8468177177.0;-8488201904.0;98752.0;3119.350385311701;3093.6952581779733;-72.62543647882649;15718.473256172274;22166.666666666668;-6448.193410494394
0.17600000000000013;-8455467546.0;-8475704956.0;-74164.0;3177.4076124696835;3109.013727887131;-32.45570035426363;14514.306789495662;23916.666666666668;-9402.359877171006
0.18000000000000013;-8442544537.0;-8463367310.0;156194.0;3230.7521229206363;3100.757744243119;50.61466277560385;13336.12761273821;11333.333333333334;2002.7942794048759
0.18400000000000014;-8429426532.0;-8450485840.0;67596.0;3279.5012320015985;3224.904563789066;-22.631105498890975;12187.277270240542;11000.0;1187.2772702405427
0.18800000000000014;-8416131372.0;-8437478027.0;58854.0;3323.7898740604287;3253.5951097990314;-0.2960523235888104;11072.160514707548;10250.0;822.1605147075479
0.19200000000000014;-8402676311.0;-8424360352.0;128281.0;3363.765050034281;3283.4952496978863;20.97695755900577;9993.7939934631;14416.666666666666;-4422.872673203566
0.19600000000000015;-8389077981.0;-8410995483.0;120932.0;3399.5821597351396;3351.419653880257;-4.783830920291621;8954.277425214626;12916.666666666666;-3962.3892414520387
0.20000000000000015;-8375352340.0;-8397421875.0;58252.0;3431.410284126227;3390.637332110759;-9.41046726914783;7957.031097771846;10833.333333333334;-2876.3022355614876
0.20400000000000015;-8361514695.0;-8383787842.0;72186.0;3459.4109605088865;3409.37017295957;6.952634905087052;7000.169095664887;11416.666666666666;-4416.497571001779
0.20800000000000016;-8347579978.0;-8370109863.0;163510.0;3483.6790778192335;3427.975203537792;24.161018347266236;6067.029327586738;8833.333333333334;-2766.304005746596
0.21200000000000016;-8333563184.0;-8356179199.0;108323.0;3504.1982723283745;3463.926297158536;11.44190621137568;5129.798627285254;7000.0;-1870.201372714746
0.21600000000000016;-8319480038.0;-8342281494.0;177308.0;3520.786437954472;3484.9855084388814;17.325393391015496;4147.041406524409;5666.666666666667;-1519.6252601422584
0.22000000000000017;-8305348430.0;-8328284912.0;223347.0;3532.901950102182;3480.5585337191187;43.497277434588796;3028.8780369274946;7583.333333333333;-4554.455296405838
0.22400000000000017;-8291190596.0;-8314035645.0;76051.0;3539.4583220650984;3571.973934015062;-41.918021081793086;1639.0929907290683;4166.666666666667;-2527.5736759375986
0.22800000000000017;-8277034531.0;-8299654541.0;-163330.0;3539.016037040554;3570.93412904682;-45.30346923366051;-110.57125613615426;11250.0;-11360.571256136154
0.23200000000000018;-8262913368.0;-8285548096.0;-112796.0;3530.2905083086353;3529.309748193905;3.1670385277375317;-2181.3821829796325;3750.0;-5931.3821829796325
0.23600000000000018;-8248863240.0;-8271469116.0;-49539.0;3512.531751600453;3519.487355060071;13.099397688541558;-4439.6891770455795;1166.6666666666667;-5606.3558437122465
0.24000000000000019;-8234920895.0;-8257406616.0;-18836.0;3485.5861361498282;3538.0079123167584;-15.837507417447341;-6736.403862656175;-8250.0;1513.596137343825
0.2440000000000002;-8221121621.0;-8243146362.0;-271280.0;3449.818282180748;3534.9856456345133;-49.31015431977676;-8941.96349227002;1583.3333333333333;-10525.296825603353
0.2480000000000002;-8207497620.0;-8229375000.0;-156391.0;3406.0001331660283;3466.3223231674174;-4.143157778067234;-10954.537253679973;-3333.3333333333335;-7621.203920346639
0.25200000000000017;-8194076889.0;-8215592651.0;-208121.0;3355.1827361608375;3432.404871127345;-12.237483102974693;-12704.349251297685;-4000.0;-8704.349251297685
0.25600000000000017;-8180881867.0;-8202189331.0;-67006.0;3298.755214875364;3363.901016013466;18.187200228706388;-14106.880321368408;-15083.333333333334;976.4530119649262
0.2600000000000002;-8167927469.0;-8188731079.0;-192826.0;3238.5993595216883;3347.523210354399;-25.984906517682703;-15038.96383841891;-9333.333333333334;-5705.630505085574
0.2640000000000002;-8155219949.0;-8175684814.0;-138150.0;3176.8798285064727;3269.9952576616706;-3.0492694911417857;-15429.882753803895;-12916.666666666666;-2513.216087137229
0.2680000000000002;-8142757823.0;-8162698975.0;-266065.0;3115.5313205094167;3240.707626705818;-42.19052114896749;-15337.126999264001;-10833.333333333334;-4503.793665930667
0.2720000000000002;-8130534164.0;-8150020752.0;-332616.0;3055.9145677845668;3175.8484452425205;-42.88766370932717;-14904.188181212476;-13833.333333333334;-1070.8548478791417
0.2760000000000002;-8118539059.0;-8137512817.0;-471535.0;2998.7761449374525;3109.1648962698914;-45.20332279010154;-14284.605711778568;-12000.0;-2284.6057117785676
0.2800000000000002;-8106761565.0;-8125356445.0;-493469.0;2944.3735294737135;3037.708935829185;-33.70768300516738;-13600.65386593476;-15166.666666666666;1566.0128007319063
0.2840000000000002;-8095190944.0;-8113348389.0;-591361.0;2892.6551191871094;2978.716908091951;-36.65741469865725;-12929.602571651003;-14583.333333333334;1653.730761682331
0.2880000000000002;-8083817209.0;-8101922607.0;-320395.0;2843.4334142498597;2866.7775854064676;38.18546781370014;-12305.42623431245;-20083.333333333332;7777.907099020883
0.2920000000000002;-8072631197.0;-8090277100.0;-472131.0;2796.5028899576328;2909.979516140759;-64.86485631185178;-11732.631073056724;-16500.0;4767.368926943277
0.2960000000000002;-8061624435.0;-8079125977.0;-322795.0;2751.6904351752155;2779.5249051579012;26.221997927012126;-11203.113695604316;-13833.333333333334;2630.2196377290184
0.3000000000000002;-8050788969.0;-8067996826.0;-335904.0;2708.8663880376;2787.412855750289;-28.55666037852552;-10706.011784403927;-12333.333333333334;1627.321548929407
0.3040000000000002;-8040117225.0;-8057142334.0;-250500.0;2667.9358235193;2700.9221475081667;19.021795080042466;-10232.641129574971;-9500.0;-732.6411295749722
0.3080000000000002;-8029601942.0;-8046458130.0;-163148.0;2628.820793237192;2682.8803669957333;0.21973390168204787;-9778.757570526977;-15833.333333333334;6054.575762806357
0.3120000000000002;-8019236141.0;-8035933228.0;-77380.0;2591.450067741809;2632.9473009974026;15.077051713796209;-9342.68137384572;-9333.333333333334;-9.348040512387342
0.3160000000000002;-8009013118.0;-8025408325.0;-145351.0;2555.755488271686;2638.122667060796;-32.610652934371956;-8923.644867530811;-11333.333333333334;2409.688465802523
0.32000000000000023;-7998926444.0;-8015174561.0;-69047.0;2521.6683989701264;2530.8566990622767;42.51717474212819;-8521.772325389862;-4833.333333333333;-3688.438992056528
0.32400000000000023;-7988969959.0;-8005100098.0;26289.0;2489.121117649701;2540.3481772383975;3.678800662566573;-8136.820330106389;-12333.333333333334;4196.513003226945
0.32800000000000024;-7979137761.0;-7994926758.0;-111196.0;2458.0495685611395;2520.205102591835;-17.91322307511564;-7767.887272140342;-6083.333333333333;-1684.5539388070092
0.33200000000000024;-7969424192.0;-7985143433.0;13449.0;2428.392024565949;2448.2022019815445;29.597178673984672;-7414.38599879757;-10916.666666666666;3502.280667869096
0.33600000000000024;-7959823832.0;-7975266724.0;-77368.0;2400.089927827619;2461.7071544266605;-19.876358802570394;-7075.524184582605;-4416.666666666667;-2658.857517915938
0.34000000000000025;-7950331475.0;-7965488892.0;-185822.0;2373.088998327999;2450.2988521757948;-44.10371207450726;-6750.232374904954;-8500.0;1749.7676250950462
0.34400000000000025;-7940942126.0;-7955804443.0;-312069.0;2347.337196776582;2422.3673962877656;-51.541222519185794;-6437.950387854244;-4166.666666666667;-2271.2837211875767
0.34800000000000025;-7931650986.0;-7946416626.0;-247737.0;2322.784936995712;2358.83809154487;-10.665291588761193;-6138.064945217479;-6166.666666666667;28.601721449187608
0.35200000000000026;-7922453442.0;-7936962891.0;-350458.0;2299.3859183592417;2353.105179239385;-36.37916037470768;-5849.754659117593;-7500.0;1650.2453408824067
0.35600000000000026;-7913345060.0;-7927866211.0;-192532.0;2277.095457979704;2280.1360399803816;21.96349263287084;-5572.615094884441;-10000.0;4427.384905115559
0.36000000000000026;-7904321576.0;-7918813477.0;-82525.0;2255.8708162166963;2264.248660445981;21.485042286072257;-5306.16044075191;-9583.333333333334;4277.172892581424
0.36400000000000027;-7895378887.0;-7909705811.0;-114947.0;2235.6720176082863;2269.9575454759374;-8.043538154067392;-5049.699652102504;-7416.666666666667;2366.967014564163
0.36800000000000027;-7886513045.0;-7900724487.0;-104323.0;2216.460465258354;2252.713768501926;-10.986477191858285;-4802.8880874830975;-4916.666666666667;113.77857918356949
0.3720000000000003;-7877720248.0;-7891913452.0;-2665.0;2198.199241216819;2210.572653270349;17.440736347306938;-4565.306010383779;-3583.3333333333335;-981.9726770504453
0.3760000000000003;-7868996832.0;-7883041992.0;-36794.0;2180.8538093376587;2231.1957171612903;-24.070614214233956;-4336.357969790015;-5583.333333333333;1246.975363543318
0.3800000000000003;-7860339268.0;-7874340820.0;27751.0;2164.390806700505;2164.3930091389566;28.701098719707716;-4115.750659288437;-3750.0;-365.7506592884374
0.3840000000000003;-7851744155.0;-7865755005.0;139649.0;2148.778301007323;2140.9868735728005;41.820185843578656;-3903.1264232954754;-5750.0;1846.8735767045246
0.3880000000000003;-7843208209.0;-7856960449.0;-21718.0;2133.986397695564;2192.9230994034856;-35.92902435881388;-3697.9758279397856;-3166.6666666666665;-531.3091612731191
0.3920000000000003;-7834728264.0;-7848314209.0;-95938.0;2119.986194889118;2176.1071243875213;-38.85838239435225;-3500.0507016114852;-2916.6666666666665;-583.3840349448187
0.3960000000000003;-7826301263.0;-7839849243.0;-46815.0;2106.7500130671706;2109.0284163852634;16.68489095915038;-3309.045455486853;-333.3333333333333;-2975.7121221535194
0.4000000000000003;-7817924255.0;-7831571045.0;134269.0;2094.251925795197;2072.4867779181714;50.38965013226016;-3124.5218179933545;-6666.666666666667;3542.1448486733125
0.4040000000000003;-7809594387.0;-7823089600.0;60314.0;2082.4668562093166;2114.904743505806;-9.413631006467313;-2946.267396470148;-7000.0;4053.732603529852
0.4080000000000003;-7801308904.0;-7814685059.0;14383.0;2071.3707804061364;2102.2372672644333;-11.721726438197948;-2774.018950795039;-3083.3333333333335;309.31438253829447
0.4120000000000003;-7793065139.0;-7806428833.0;70704.0;2060.941190777287;2074.4548496619427;7.92387900970698;-2607.3974072123747;-833.3333333333334;-1774.0640738790412
0.4160000000000003;-7784860513.0;-7798068237.0;-20690.0;2051.1563132721517;2080.5502882381643;-14.491061088377592;-2446.219376283807;-583.3333333333334;-1862.8860429504734
0.4200000000000003;-7776692531.0;-7789685669.0;-174766.0;2041.995286065901;2094.1119238144083;-47.47513320245298;-2290.256801562691;-2250.0;-40.25680156269118
0.4240000000000003;-7768558777.0;-7781511841.0;-158268.0;2033.4385642875986;2040.5653122168221;-2.479949824154346;-2139.1804445755724;-166.66666666666666;-1972.5137779089057
0.4280000000000003;-7760456907.0;-7773365479.0;-150004.0;2025.467242050655;2037.0239624925778;-7.36784501918828;-1992.8305592359266;-4166.666666666667;2173.8361074307404
0.43200000000000033;-7752384654.0;-7765147705.0;-246465.0;2018.0632085373954;2048.0872930305527;-32.54699641637603;-1851.008378314873;-3333.3333333333335;1482.3249550184605
0.43600000000000033;-7744339816.0;-7757105713.0;-198143.0;2011.2095017166719;2008.2520783080347;2.437707108978657;-1713.4267051808934;-3416.6666666666665;1703.2399614857732
0.44000000000000034;-7736320257.0;-7749085693.0;-156606.0;2004.8897218208547;2016.1997412304916;-10.206897349431756;-1579.944973954298;-3166.6666666666665;1586.7216927123686
0.44400000000000034;-7728323904.0;-7740950317.0;-257006.0;1999.088166585301;2035.5981528173872;-42.274546644400516;-1450.3888088884196;-1916.6666666666667;466.27785777824715
0.44800000000000034;-7720348743.0;-7732869873.0;-326944.0;1993.7901402338866;2013.8281051630415;-30.818219383367705;-1324.506587853591;-83.33333333333333;-1241.1732545202578
0.45200000000000035;-7712392816.0;-7725124512.0;-84218.0;1988.9814472759367;1927.1948989731707;64.77359643324212;-1202.173239487479;-1333.3333333333333;131.16009384585436
0.45600000000000035;-7704454222.0;-7717412109.0;171038.0;1984.6485083875732;1946.0969264557102;56.079965279300495;-1083.2347220908787;-9083.333333333334;8000.098611242455
0.46000000000000035;-7696531107.0;-7709342651.0;50748.0;1980.7786299675217;2011.8884146364219;-21.551853992283895;-967.4696050128659;-4416.666666666667;3449.197061653801
0.46400000000000036;-7688621668.0;-7701240234.0;-119111.0;1977.3595690352208;2016.591925784886;-40.59903541027279;-854.7652330752271;3833.3333333333335;-4688.09856640856
0.46800000000000036;-7680724150.0;-7693390503.0;-51059.0;1974.3796310293103;1959.4126694067866;16.969491392779446;-744.9845014776315;6666.666666666667;-7411.651168144299
0.47200000000000036;-7672836838.0;-7685656128.0;119359.0;1971.8279044236529;1936.2675351253972;47.0921086122064;-637.9316514143625;-3250.0;2612.0683485856375
