Zeit[sec];Sollposition[°];Istposition[°];Positionsschleppfehler[°];Sollgeschwindigkeit[°/s];Istgeschwindigkeit[°/s];Geschwindigkeitsdifferenz[°/s];Sollbeschleunigung[°/s*s];Istbeschleunigung[°/s*s];Beschleunigungsdifferenz[°/s*s]
0.0;0.0;4.0;-4.0;-0.0;-0.00023999999999999998;0.0;0.0;0.0;0.0
0.004;0.0;4.0;-4.0;-0.0;-0.00023999999999999998;0.0;0.0;0.0;0.0
0.008;0.0;4.0;-4.0;-0.0;-0.00023999999999999998;0.0;0.0;0.0;0.0
0.012;0.0;4.0;-4.0;-0.0;-0.00023999999999999998;0.0;0.0;0.0;0.0
0.016;0.0;4.0;-4.0;-0.0;-0.00023999999999999998;0.0;0.0;0.0;0.0
0.02;0.0;4.0;-4.0;-0.0;-0.00023999999999999998;0.0;0.0;0.0;0.0
0.024;0.0;4.0;-4.0;-0.0;-0.00023999999999999998;0.0;0.0;0.0;0.0
0.028;0.0;4.0;-4.0;-0.0;-0.00023999999999999998;0.0;0.0;0.0;0.0
0.032;0.0;4.0;-4.0;-0.0;-0.00023999999999999998;0.0;0.0;0.0;0.0
0.036000000000000004;0.0;4.0;-4.0;-0.0;-0.00023999999999999998;0.0;0.0;0.0;0.0
0.04000000000000001;0.0;4.0;-4.0;-0.0;-0.00023999999999999998;0.0;0.0;0.0;0.0
0.04400000000000001;0.0;4.0;-4.0;-0.0;-0.00023999999999999998;0.0;0.0;0.0;0.0
0.048000000000000015;0.0;4.0;-4.0;-0.0;-0.00023999999999999998;0.0;0.0;0.0;0.0
0.05200000000000002;0.0;4.0;-4.0;-0.0;-0.00023999999999999998;0.0;0.0;0.0;0.0
0.05600000000000002;4738.0;4.0;-4.0;1.184632840693744;-0.00023999999999999998;0.0;296.15821017343603;0.0;296.15821017343603
0.060000000000000026;51961.0;4.0;4734.0;11.80566336815288;-0.00023999999999999998;1.4689128406937442;2655.257631864784;0.0;2655.257631864784
0.06400000000000003;284070.0;5878.0;46083.0;58.02722939079776;1.4686728406937442;13.101970527459136;11555.391505661219;0.0;11555.391505661219
0.06800000000000003;1051048.0;64160.0;219910.0;191.7446676723165;14.57064336815288;56.65118602264487;33429.35957037968;0.0;33429.35957037968
0.07200000000000004;2995439.0;349047.0;702001.0;486.09760130953487;71.22182939079775;162.64289828151874;73588.2334093046;166.66666666666666;73421.56674263792
0.07600000000000004;7058174.0;1284505.0;1710934.0;1015.6837376671069;233.8647276723165;354.88891363721837;132396.534089393;833.3333333333334;131563.20075605967
0.08000000000000004;14387757.0;3639519.0;3418655.0;1832.3957763734988;588.7536413095348;632.0493963575722;204178.00967659798;2333.3333333333335;201844.67634326464
0.08400000000000005;26223804.0;8522731.0;5865026.0;2959.011509682382;1220.803037667107;963.4942987063916;281653.9333272208;5333.333333333333;276320.5999938875
0.08800000000000005;43837603.0;17259920.0;8963884.0;4403.449576585228;2184.2973363734986;1312.5472133088833;361109.5167257115;10333.333333333334;350776.18339237815
0.09200000000000005;68517108.0;31247298.0;12590305.0;6169.875850448683;3496.844549682382;1662.0233269028463;441606.5684658638;18000.0;423606.5684658638
0.09600000000000006;101526442.0;51882769.0;16634339.0;8252.333071070883;5158.867876585228;2009.068313863455;520614.30515555;28250.0;492364.30515555
0.10000000000000006;144024277.0;80554513.0;20971929.0;10624.45839048644;7167.936190448683;2342.7126206222;593031.3298538891;41250.0;551781.3298538891
0.10400000000000006;196981151.0;118597108.0;25427169.0;13239.21793049055;9510.648811070883;2639.4397194155554;653689.8850010275;56833.333333333336;596856.5516676941
0.10800000000000007;261100961.0;167197462.0;29783689.0;16029.951560952668;12150.088530486439;2876.15074000411;697683.4076155296;75083.33333333333;622600.0742821964
0.11200000000000007;336739021.0;227302419.0;33798542.0;18909.5140921013;15026.239270490549;3031.624810462121;719890.6327871582;95500.0;624390.6327871582
0.11600000000000008;423863541.0;299533875.0;37205146.0;21781.12901642851;18057.86408095267;3083.958771148631;717903.7310818022;117833.33333333333;600070.3977484688
0.12000000000000008;522090056.0;384101166.0;39762375.0;24556.627603010613;21141.8228521013;3025.048664327209;693874.6466455259;141166.66666666666;552707.9799788592
0.12400000000000008;630755991.0;480768652.0;41321404.0;27166.48258709153;24166.87151642851;2869.040326582104;652463.7460202293;165083.33333333334;487380.412686896
0.12800000000000009;749002837.0;588912299.0;41843692.0;29561.71000894847;27035.911843010614;2641.192264080917;598806.8554642351;188333.33333333334;410473.5221309017
0.1320000000000001;875850981.0;707620715.0;41382122.0;31712.034559675525;29677.10410709153;2367.5332218569383;537581.1376817637;210666.66666666666;326914.47101509705
0.1360000000000001;1010254652.0;835799264.0;40051717.0;33600.91618223472;32044.63732894847;2070.5002507270547;472220.40563979954;231083.33333333334;241137.0723064662
0.1400000000000001;1151139832.0;972259814.0;37994838.0;35221.293254808355;34115.137579675524;1765.468882559202;405094.26814340806;249583.33333333334;155510.9348100747
0.1440000000000001;1297443476.0;1115782239.0;35357593.0;36575.90922353086;35880.606462234726;1462.1423725736313;338653.992180627;265750.0;72903.99218062703
0.1480000000000001;1448158418.0;1265153234.0;32290242.0;37678.7337248031;37342.74883480836;1170.574908722505;275706.12531806;279583.3333333333;-3877.2080152733106
0.1520000000000001;1602368730.0;1419206528.0;28951890.0;38552.57602543894;38513.32374353086;902.5233812722436;218460.57515895882;291000.0;-72539.42484104118
0.1560000000000001;1759273569.0;1576869916.0;25498814.0;39226.207969536474;39415.847124803106;666.6577406358338;168407.98602438372;300166.6666666667;-131758.68064228297
0.16000000000000011;1918206749.0;1737199935.0;22073634.0;39733.29310184895;40082.50486543894;468.1211440975312;126771.28307811836;307250.0;-180478.71692188166
0.16400000000000012;2078640960.0;1899402439.0;18804310.0;40108.55093101189;40550.62600953647;310.9256923124776;93814.45729073494;312666.6666666667;-218852.20937593176
0.16800000000000012;2240168259.0;2062848645.0;15792315.0;40381.82267385721;40861.55170184895;194.53812916293828;68317.9357113313;316416.6666666667;-248098.73095533537
0.17200000000000013;2402468526.0;2227073004.0;13095255.0;40575.06492427359;41056.08983101189;111.44814284532913;48310.56260409423;319000.0;-270689.4373959058
0.17600000000000013;2565281167.0;2391743155.0;10725371.0;40703.15835958043;41167.537973857216;51.04921041637135;32023.358826711046;320500.0;-288476.6411732889
0.18000000000000013;2728392455.0;2556617503.0;8663664.0;40777.81993008351;41218.58718427359;4.391015306842746;18665.392625769528;321416.6666666667;-302751.27404089714
0.18400000000000014;2891640593.0;2721509415.0;6883040.0;40812.03256580793;41222.97819958043;-32.175869496917585;8553.158931104917;321833.3333333333;-313280.1744022284
0.18800000000000014;3054922649.0;2886272624.0;5367969.0;40820.51211977301;41190.80233008351;-56.69162427558331;2119.8884912701033;322000.0;-319880.11150872987
0.19200000000000014;3218188766.0;3050809066.0;4113583.0;40816.52740502625;41134.11070580793;-66.78360603491456;-996.1786866897455;321750.0;-322746.17868668976
0.19600000000000015;3381425684.0;3215078374.0;3110392.0;40809.22744498961;41067.327099773014;-64.17617474676081;-1824.9900091614109;321333.3333333333;-323158.3233424947
0.20000000000000015;3544638765.0;3379090977.0;2334707.0;40803.26839311811;41003.15092502625;-53.84106003664783;-1489.7629678744124;320583.3333333333;-322073.0963012077
0.20400000000000015;3707838639.0;3542888216.0;1750549.0;40799.96643247487;40949.309864989606;-41.008531871499144;-825.4901608106593;319500.0;-320325.49016081064
0.20800000000000016;3871034096.0;3706521421.0;1317218.0;40798.86250408361;40908.30133311811;-29.301820643238898;-275.98209781353944;317583.3333333333;-317859.3154311469
0.21200000000000016;4034229988.0;3870037419.0;996677.0;40798.97105757904;40878.99951247487;-20.336388391253422;27.138373856359976;314333.3333333333;-314306.19495947694
0.21600000000000016;4197427861.0;4033472071.0;757917.0;40799.46625465785;40858.663124083614;-14.21704650457832;123.79926970243105;309000.0;-308876.2007302976
0.22000000000000017;4360627442.0;4196849855.0;578006.0;40799.893231191774;40844.446077579036;-10.299462921189843;106.74413348169765;301250.0;-301143.2558665183
0.22400000000000017;4523826349.0;4360186441.0;441001.0;40799.72485482354;40834.146614657846;-7.793323466074071;-42.094092059414834;290833.3333333333;-290875.4274253927
0.22800000000000017;4687013876.0;4523491854.0;334495.0;40796.87972055066;40826.35329119177;-6.558736368235259;-711.2835682182777;277833.3333333333;-278544.6169015516
0.23200000000000018;4850159326.0;4686771032.0;242844.0;40786.360569120785;40819.79455482354;-8.34419427287503;-2629.787857469637;262083.33333333334;-264713.121190803
0.23600000000000018;5013198891.0;4850016833.0;142493.0;40759.88936239138;40811.45036055066;-16.540211429877672;-6617.801682350546;243833.33333333334;-250451.1350156839
0.24000000000000019;5176016570.0;5013196473.0;2418.0;40704.41784422331;40794.910149120784;-34.8757067293991;-13867.879542018272;223250.0;-237117.8795420183
0.2440000000000002;5338418015.0;5176236610.0;-220040.0;40600.35940751063;40760.034442391385;-68.81899816807709;-26014.60917816985;200916.66666666666;-226931.2758448365
0.2480000000000002;5500112560.0;5339001471.0;-583456.0;40423.63436753175;40691.21544422331;-125.8633967126807;-44181.259994720676;177166.66666666666;-221347.92666138732
0.25200000000000017;5660711107.0;5501262879.0;-1150319.0;40149.6348099128;40565.35204751063;-210.73681997887616;-68499.88940473668;152750.0;-221249.8894047367
0.25600000000000017;5819732640.0;5662681339.0;-1970232.0;39755.38120014208;40354.61522753175;-323.194337618952;-98563.40244267994;128250.0;-226813.40244267994
0.2600000000000002;5976617978.0;5822807022.0;-3074382.0;39221.33272428563;40031.4208899128;-460.50260977071594;-133512.11896411225;104333.33333333333;-237845.45229744556
0.2640000000000002;6130752447.0;5981090695.0;-4472717.0;38533.61540478284;39570.91828014208;-617.9485758564479;-171929.32987569837;81250.0;-253179.32987569837
0.2680000000000002;6281491197.0;6136902573.0;-6150126.0;37684.68571419117;38952.969704285635;-788.3618595027947;-212232.4226479177;59166.666666666664;-271399.0893145844
0.2720000000000002;6428182713.0;6289561004.0;-8069807.0;36672.87727834478;38164.60784478284;-964.1105505916712;-252952.10896159732;38166.666666666664;-291118.775628264
0.2760000000000002;6570196142.0;6438362993.0;-10180280.0;35503.35547389093;37200.49729419117;-1138.4368158463913;-292380.4511134622;18166.666666666668;-310547.11778012884
0.2800000000000002;6706952691.0;6582611234.0;-12415092.0;34189.135755268086;36062.06047834478;-1303.6105244538485;-328554.92965571105;-750.0;-327804.92965571105
0.2840000000000002;6837947617.0;6721645033.0;-14692342.0;32748.729932568596;34758.44995389093;-1450.8547186228461;-360101.4556748723;-18916.666666666668;-341184.7890082057
0.2880000000000002;6962757169.0;6854875413.0;-16927796.0;31202.386526047492;33307.59523526808;-1574.5330626994873;-386585.851630276;-36166.666666666664;-350419.1849636093
0.2920000000000002;7081037025.0;6981807661.0;-19050492.0;29569.96257542231;31733.062172568596;-1673.7051665211038;-408105.9876562958;-52750.0;-355355.9876562958
0.2960000000000002;7192513979.0;7102045089.0;-21008064.0;27869.237232013038;30059.357006047492;-1749.878270625184;-425181.33585231774;-68750.0;-356431.33585231774
0.3000000000000002;7296972090.0;7215283003.0;-22769024.0;26114.526492082;28309.478735422308;-1806.3829434092695;-438677.6849827593;-84250.0;-354427.6849827593
0.3040000000000002;7394239023.0;7321295386.0;-24323296.0;24316.73203422173;26503.09579201304;-1847.9670599310375;-449448.6144650673;-99500.0;-349948.6144650673
0.3080000000000002;7484174506.0;7419915900.0;-25676877.0;22483.86976579174;24655.128732082;-1879.0093178602692;-458215.56710749795;-114500.0;-343715.56710749795
0.3120000000000002;7566660154.0;7511020377.0;-26845871.0;20621.410938109428;22776.119414221732;-1903.001908429993;-465614.7069205781;-129333.33333333333;-336281.3735872448
0.3160000000000002;7641591523.0;7594512847.0;-27852693.0;18732.841466866394;20873.11750579174;-1922.8681476823112;-472142.36781075853;-144083.33333333334;-328059.03447742516
0.32000000000000023;7708876575.0;7670313844.0;-28722321.0;16821.26215506475;18950.249358109428;-1940.7471512430348;-477894.8279504111;-158750.0;-319144.8279504111
0.32400000000000023;7768449463.0;7738351852.0;-29475277.0;14893.221171592095;17009.502206866393;-1956.7566718016442;-482010.2458681636;-173333.33333333334;-308676.9125348302
0.32800000000000024;7820298267.0;7798562834.0;-30113371.0;12962.200582009227;15052.745535064749;-1966.3266234726543;-482755.1473957169;-188000.0;-294755.1473957169
0.33200000000000024;7864494367.0;7850908509.0;-30610242.0;11049.024265893222;13086.418911592094;-1960.8328495828664;-478294.0790290013;-202750.0;-275544.0790290013
0.33600000000000024;7901228851.0;7895410853.0;-30916486.0;9183.620589942568;11125.586062009228;-1931.5509561160052;-466350.9189876636;-217750.0;-248600.91898766358
0.34000000000000025;7930859441.0;7932186993.0;-30958142.0;7407.6472345950415;9194.035105893223;-1867.903035950655;-443993.33883688156;-232666.66666666666;-211326.67217021488
0.34400000000000025;7953936005.0;7961491521.0;-30632080.0;5769.140690436662;7326.132069942568;-1756.409635347526;-409626.6360395948;-247416.66666666666;-162209.96937292814
0.34800000000000025;7971179838.0;7983770410.0;-29834405.0;4310.9580072660365;5569.722434595042;-1590.6460441583795;-364545.6707926564;-261666.66666666666;-102879.00412598978
0.35200000000000026;7983432777.0;7999686715.0;-28506877.0;3063.2346137306836;3979.076390436662;-1378.5310031706258;-311930.84838383825;-275166.6666666667;-36764.18171717154
0.35600000000000026;7991599537.0;8010088896.0;-26656119.0;2041.6898257838595;2600.5453872660364;-1136.6779135353527;-255386.19698670603;-287333.3333333333;31947.136346627303
0.36000000000000026;7996589231.0;8015944365.0;-24344828.0;1247.4234622020847;1463.8674737306837;-882.8673279468242;-198566.59089544372;-298000.0;99433.4091045563
0.36400000000000027;7999262531.0;8018268365.0;-21679134.0;668.3251410855922;581.0001457838596;-634.3247235817748;-144774.58027912313;-306833.3333333333;162058.7530542102
0.36800000000000027;8000394491.0;8018055067.0;-18792536.0;282.9898840961392;-53.32457779791525;-405.90244111649247;-96333.81424736326;-313666.6666666667;217332.8524193034
0.3720000000000003;8000640394.0;8016218159.0;-15823668.0;61.47577067665462;-459.2270189144077;-207.20317698945303;-55378.52835487114;-318500.0;263121.47164512886
0.3760000000000003;8000492995.0;8013552439.0;-12912045.0;-36.84982203749197;-666.4301959038607;-46.816733419484535;-24581.39817853665;-321416.6666666667;296835.26848813007
0.3800000000000003;8000258650.0;8010699452.0;-10206457.0;-58.586240342671616;-713.2469293233453;64.00968728585337;-5434.104576294912;-322583.3333333333;317149.2287570384
0.3840000000000003;8000079342.0;8008102504.0;-7843854.0;-44.82696436379181;-649.2372420374919;120.01976169482032;3439.8189947199517;-322000.0;325439.81899471994
0.3880000000000003;7999987261.0;8005985635.0;-5906293.0;-23.020204709281348;-529.2174803426716;130.0129359788798;5451.689913627615;-319833.3333333333;325285.02324696095
0.3920000000000003;7999961807.0;8004388817.0;-4401556.0;-6.363537022839093;-399.2045443637918;112.09097965451048;4164.166921610564;-316416.6666666667;320580.8335882772
0.3960000000000003;7999970067.0;8003240363.0;-3278556.0;2.065036851460322;-287.1135647092813;84.03666768644223;2107.1434685748536;-311916.6666666667;314023.81013524154
0.4000000000000003;7999986869.0;8002428056.0;-2457989.0;4.200471332799992;-203.0768970228391;57.66259387429943;533.8586203349176;-306250.0;306783.85862033494
0.4040000000000003;7999999590.0;8001846399.0;-1859530.0;3.180253093212442;-145.41430314853966;38.042974481339655;-255.05455989688753;-299416.6666666667;299161.6121067698
0.4080000000000003;8000005238.0;8001416914.0;-1417324.0;1.4119327402185362;-107.3713286672;25.512141760412447;-442.0800882484765;-291333.3333333333;290891.25324508484
0.4120000000000003;8000005626.0;8001089478.0;-1084240.0;0.09716654393671485;-81.85918690678756;18.216719647006094;-328.6915490704553;-282166.6666666667;281837.9751175962
0.4160000000000003;8000003660.0;8000834909.0;-829283.0;-0.4916642997472655;-63.64246725978146;13.98265380371818;-147.20771092099508;-271833.3333333333;271686.1256224123
0.4200000000000003;8000001483.0;8000636270.0;-632610.0;-0.5441361097967089;-49.65981345606328;11.211549156316025;-13.11795251236085;-260416.66666666666;260403.54871415428
0.4240000000000003;8000000089.0;8000482477.0;-480994.0;-0.34851793565860095;-38.44826429974726;9.044488189950549;48.90454353452699;-248000.0;248048.90454353453
0.4280000000000003;7999999641.0;8000364862.0;-364773.0;-0.11209000298434482;-29.40377610979671;7.168878174138108;59.106983168564035;-234916.66666666666;234975.77364983523
0.43200000000000033;7999999922.0;8000275923.0;-276282.0;0.0702360510936513;-22.2348979356586;5.545887932674258;45.58151351949903;-221250.0;221295.5815135195
0.43600000000000033;8000000619.0;8000209167.0;-209245.0;0.17438841919757556;-16.689010002984343;4.204546054077996;26.038092025981065;-207166.66666666666;207192.70475869265
0.44000000000000034;8000001427.0;8000159230.0;-158611.0;0.20202066374000519;-12.484463948906347;3.142192368103922;6.908061135607407;-192666.66666666666;192673.57472780228
0.44400000000000034;8000002083.0;8000121861.0;-120434.0;0.1639603292065482;-9.342271580802425;2.318252244542431;-9.515083633364243;-178000.0;177990.48491636664
0.44800000000000034;8000002413.0;8000093765.0;-91682.0;0.08247083931011923;-7.024019336259994;1.6870596654665428;-20.372372474107244;-163083.33333333334;163062.96096085923
0.45200000000000035;8000002370.0;8000072418.0;-70005.0;-0.010808130635198846;-5.336959670793451;1.2191305101035708;-23.319742486329517;-148083.33333333334;148060.01359084703
0.45600000000000035;8000002024.0;8000055947.0;-53577.0;-0.0864124226796632;-4.1178291606898805;0.8924010300546819;-18.90107301111609;-132833.33333333334;132814.43226032224
0.46000000000000035;8000001514.0;8000043046.0;-41022.0;-0.12749269450306358;-3.2254281306351986;0.6776957079555359;-10.270067955850095;-117583.33333333333;117573.06326537748
0.46400000000000036;8000000985.0;8000032856.0;-31342.0;-0.13228032217102062;-2.5477324226796627;0.5397197281765993;-1.1969069169892599;-102250.0;102248.80309308301
0.46800000000000036;8000000544.0;8000024824.0;-23839.0;-0.11032128490555135;-2.0080126945030634;0.44539237233204276;5.489759316367318;-87083.33333333333;87088.82309264969
0.47200000000000036;8000000239.0;8000018574.0;-18030.0;-0.0761938383599966;-1.5626203221710206;0.3704990372654695;8.531861636388687;-72083.33333333333;72091.86519496972
0.47600000000000037;8000000067.0;8000013806.0;-13567.0;-0.04306992826764741;-1.1921212849055511;0.30190744654555457;8.280977523087298;-57583.333333333336;57591.61431085642
0.48000000000000037;7999999992.0;8000010246.0;-10179.0;-0.018563420253282073;-0.8902138383599966;0.23640391009234918;6.126627003591334;-43916.666666666664;43922.79329367026
0.4840000000000004;7999999975.0;8000007631.0;-7639.0;-0.004351443875215002;-0.6538099282676474;0.17690650801436536;3.5529940945167677;-31500.0;31503.552994094516
0.4880000000000004;7999999982.0;8000005724.0;-5749.0;0.0016615977655428625;-0.47690342025328203;0.12761197637806704;1.5032604101894662;-20833.333333333332;20834.836593743523
0.4920000000000004;7999999993.0;8000004327.0;-4345.0;0.002795329582339243;-0.349291443875215;0.09025304164075787;0.2834329541990951;-12000.0;12000.283432954198
0.4960000000000004;8000000000.0;8000003291.0;-3298.0;0.0018950120469751494;-0.2590384022344571;0.0639537318167964;-0.22507938384102336;-5250.0;5249.774920616159
0.5000000000000003;8000000003.0;8000002511.0;-2511.0;0.0006955142502654305;-0.19508467041766073;0.046319682464635886;-0.2998744491774297;-166.66666666666666;166.36679221748923
0.5040000000000003;8000000003.0;8000001916.0;-1913.0;-8.735940073109872e-05;-0.14876498795302484;0.034680502203290275;-0.1957184127491323;3083.3333333333335;-3083.5290517460826
0.5080000000000003;8000000001.0;8000001460.0;-1457.0;-0.0003726849120979601;-0.11408448574973457;0.02657712634900347;-0.07133137784171535;4833.333333333333;-4833.4046647111745
