Zeit[sec];Sollposition[°];Istposition[°];Positionsschleppfehler[°];Sollgeschwindigkeit[°/s];Istgeschwindigkeit[°/s];Geschwindigkeitsdifferenz[°/s];Sollbeschleunigung[°/s*s];Istbeschleunigung[°/s*s];Beschleunigungsdifferenz[°/s*s]
0.0;0.0;-2.0;2.0;-0.0;0.000192;0.0;0.0;0.0;0.0
0.004;0.0;-2.0;2.0;-0.0;0.000192;0.0;0.0;0.0;0.0
0.008;0.0;-2.0;2.0;-0.0;0.000192;0.0;0.0;0.0;0.0
0.012;0.0;-2.0;2.0;-0.0;0.000192;0.0;0.0;0.0;0.0
0.016;0.0;-2.0;2.0;-0.0;0.000192;0.0;0.0;0.0;0.0
0.02;0.0;-2.0;2.0;-0.0;0.000192;0.0;0.0;0.0;0.0
0.024;0.0;-2.0;2.0;-0.0;0.000192;0.0;0.0;0.0;0.0
0.028;0.0;-2.0;2.0;-0.0;0.000192;0.0;0.0;0.0;0.0
0.032;0.0;-2.0;2.0;-0.0;0.000192;0.0;0.0;0.0;0.0
0.036000000000000004;0.0;-2.0;2.0;-0.0;0.000192;0.0;0.0;0.0;0.0
0.04000000000000001;0.0;-2.0;2.0;-0.0;0.000192;0.0;0.0;0.0;0.0
0.04400000000000001;0.0;-2.0;2.0;-0.0;0.000192;0.0;0.0;0.0;0.0
0.048000000000000015;0.0;-2.0;2.0;-0.0;0.000192;0.0;0.0;0.0;0.0
0.05200000000000002;0.0;-2.0;2.0;-0.0;0.000192;0.0;0.0;0.0;0.0
0.05600000000000002;0.0;-2.0;2.0;-0.0;0.000192;0.0;0.0;0.0;0.0
0.060000000000000026;0.0;-2.0;2.0;-0.0;0.000192;0.0;0.0;0.0;0.0
0.06400000000000003;0.0;-2.0;2.0;-0.0;0.000192;0.0;0.0;0.0;0.0
0.06800000000000003;-2008.0;-2.0;2.0;-0.5021358751929994;0.000192;0.0;-125.53396879824984;0.0;-125.53396879824984
0.07200000000000004;-126911.0;-2.0;-2006.0;-31.225707586333925;0.000192;-0.6949038751929993;-7680.892927785231;0.0;-7680.892927785231
0.07600000000000004;-549147.0;-2780.0;-124131.0;-105.5590384826113;-0.6947118751929994;-42.447571711140924;-18583.332724069343;0.0;-18583.332724069343
0.08000000000000004;-1541509.0;-175349.0;-373798.0;-248.09040706806437;-43.142283586333924;-98.3013628962774;-35632.84214636327;-83.33333333333333;-35549.508813029934
0.08400000000000005;-3269003.0;-741123.0;-800386.0;-431.8735261145136;-141.4436464826113;-183.48381658545304;-45945.779761612306;-416.6666666666667;-45529.11309494564
0.08800000000000005;-6060706.0;-2040832.0;-1228171.0;-697.9258496509418;-324.92746306806436;-224.85047904644927;-66513.08088410705;-1250.0;-65263.080884107054
0.09200000000000005;-10350234.0;-4239943.0;-1820763.0;-1072.3819571146644;-549.7779421145136;-322.94115553642825;-93614.02686593065;-2666.6666666666665;-90947.36019926397
0.09600000000000006;-16604289.0;-7730819.0;-2619415.0;-1563.5134309587713;-872.7190976509419;-451.1266994637226;-122782.86846102674;-4583.333333333333;-118199.53512769341
0.10000000000000006;-25345864.0;-13026202.0;-3578087.0;-2185.3937712417746;-1323.8457971146645;-583.1639858441067;-155470.08507075082;-7166.666666666667;-148303.41840408416
0.10400000000000006;-37108269.0;-20654241.0;-4691623.0;-2940.6010927469856;-1907.0097829587712;-728.7797962830036;-188801.83037630274;-10666.666666666666;-178135.16370963608
0.10800000000000007;-52365175.0;-31197399.0;-5910870.0;-3814.226344203848;-2635.789579241775;-872.255033505211;-218406.31286421558;-15250.0;-203156.31286421558
0.11200000000000007;-71527169.0;-45229577.0;-7135598.0;-4790.498388841056;-3508.044612746986;-991.1991394568622;-244068.01115930206;-21000.0;-223068.01115930206
0.11600000000000008;-94957907.0;-63226552.0;-8300617.0;-5857.68402791264;-4499.243752203848;-1088.1138686372078;-266796.40976789594;-27666.666666666668;-239129.7431012293
0.12000000000000008;-122945894.0;-85575982.0;-9381925.0;-6996.996542485284;-5587.357620841056;-1170.9912070715836;-284828.1286431611;-35416.666666666664;-249411.46197649444
0.12400000000000008;-155694652.0;-112609377.0;-10336517.0;-8187.188999688708;-6758.3488279126395;-1230.9533465726454;-297548.1143008558;-43833.333333333336;-253714.78096752244
0.12800000000000009;-193352009.0;-144566585.0;-11128067.0;-9414.338789682997;-7989.302174485285;-1266.1812572034232;-306787.4474985724;-53000.0;-253787.4474985724
0.1320000000000001;-236026937.0;-181588518.0;-11763491.0;-10668.731455575351;-9255.483431688708;-1288.1504939942897;-313598.16647308844;-62500.0;-251098.16647308844
0.1360000000000001;-283789778.0;-223763053.0;-12263884.0;-11940.709842209812;-10543.633925682998;-1302.430393892353;-317994.59665861516;-72416.66666666667;-245577.92999194848
0.1400000000000001;-336654821.0;-271147310.0;-12642468.0;-13216.260001986824;-11846.064319575351;-1308.3224506344613;-318887.53994425316;-82416.66666666667;-236470.87327758648
0.1440000000000001;-394552558.0;-323764857.0;-12889964.0;-14474.433716242895;-13154.386770209812;-1299.309775777012;-314543.42856401764;-92583.33333333333;-221960.0952306843
0.1480000000000001;-457342596.0;-381579643.0;-12972915.0;-15697.508791563183;-14453.696545986824;-1266.1370102560704;-305768.7688300721;-102750.0;-203018.76883007208
0.1520000000000001;-524839267.0;-444458977.0;-12883619.0;-16874.166888729607;-15719.833556242895;-1214.5026593202892;-294164.5242916061;-112833.33333333333;-181331.19095827275
0.1560000000000001;-596797301.0;-512196321.0;-12642946.0;-17989.5076622869;-16934.336215563184;-1153.5534891664247;-278835.1933893227;-122666.66666666667;-156168.52672265607
0.16000000000000011;-672904985.0;-584547879.0;-12249422.0;-19026.919985518463;-18087.88970472961;-1077.5624695572878;-259353.08080789127;-132083.33333333334;-127269.74747455792
0.16400000000000012;-752802023.0;-661209687.0;-11695298.0;-19974.258557866;-19165.452174286896;-984.2164192315686;-236834.64308688417;-141083.33333333334;-95751.30975355083
0.16800000000000012;-836086286.0;-741808361.0;-10993662.0;-20821.06486318228;-20149.668593518465;-879.981516347536;-211701.5763290701;-149500.0;-62201.57632907012
0.17200000000000013;-922314981.0;-825926961.0;-10159325.0;-21557.172611815313;-21029.650109866;-766.70995331628;-184026.93715825808;-157166.66666666666;-26860.270491591422
0.17600000000000013;-1011030260.0;-913112401.0;-9202580.0;-22178.818700460444;-21796.36006318228;-644.260228633033;-155411.52216128283;-164000.0;8588.477838717154
0.18000000000000013;-1101801352.0;-1002874882.0;-8155378.0;-22692.771997745767;-22440.620291815314;-521.1146966451306;-128488.32432133076;-169916.66666666666;41428.34234533589
0.18400000000000014;-1194232864.0;-1094721821.0;-7079531.0;-23107.876788136422;-22961.734988460445;-410.6719852853239;-103776.19759766367;-175000.0;71223.80240233633
0.18800000000000014;-1287960814.0;-1188211448.0;-6021416.0;-23431.986463729183;-23372.40697374577;-313.52575039065414;-81027.41889819026;-179083.33333333334;98055.91443514309
0.19200000000000014;-1382679072.0;-1282955178.0;-5005636.0;-23679.56349250019;-23685.932724136423;-226.59479559276224;-61894.257192751866;-182416.66666666666;120522.4094739148
0.19600000000000015;-1478147167.0;-1378605288.0;-4073784.0;-23867.022388983376;-23912.527519729185;-158.1192367710064;-46864.72412079638;-184833.33333333334;137968.60921253695
0.20000000000000015;-1574167738.0;-1474887875.0;-3259292.0;-24005.141702283185;-24070.64675650019;-109.26766448318449;-34529.82832495218;-186666.66666666666;152136.83834171447
0.20400000000000015;-1670577101.0;-1571607532.0;-2560206.0;-24102.339567991043;-24179.914420983376;-71.00705729980837;-24299.4664269645;-187916.66666666666;163617.20023970216
0.20800000000000016;-1767244959.0;-1668611217.0;-1965884.0;-24166.963374474846;-24250.921478283184;-40.142953707858396;-16155.951620950873;-188666.66666666666;172510.7150457158
0.21200000000000016;-1864073797.0;-1765775474.0;-1469485.0;-24207.20846950507;-24291.064431991043;-16.969502483803808;-10061.273757555682;-188916.66666666666;178855.392909111
0.21600000000000016;-1961001817.0;-1863007609.0;-1066188.0;-24232.003824525193;-24308.033934474846;-1.5285830302236718;-6198.83875503092;-188333.33333333334;182134.49457830243
0.22000000000000017;-2057995962.0;-1960245859.0;-755958.0;-24248.534953341692;-24309.56251750507;4.986724979877181;-4132.782204124851;-187250.0;183117.21779587516
0.22400000000000017;-2155031526.0;-2057464162.0;-531800.0;-24258.889935114352;-24304.575792525193;4.988039183499495;-2588.745443164953;-185333.33333333334;182744.5878901684
0.22800000000000017;-2252075452.0;-2154662513.0;-369013.0;-24260.980267756586;-24299.587753341693;5.27257022734193;-522.5831605584972;-182750.0;182227.41683944152
0.23200000000000018;-2349086330.0;-2251839773.0;-235679.0;-24252.718334813806;-24294.31518311435;10.709731357765122;2065.4832356949555;-179166.66666666666;181232.14990236162
0.23600000000000018;-2446005421.0;-2348974194.0;-112136.0;-24229.771773240165;-24283.605451756586;20.12206094278008;5736.640393410198;-174500.0;180236.6403934102
0.24000000000000019;-2542726793.0;-2446028127.0;22706.0;-24180.341787705554;-24263.483390813806;35.891393573641835;12357.496383652688;-168750.0;181107.49638365267
0.2440000000000002;-2639098404.0;-2542938494.0;211701.0;-24092.901537950274;-24227.591997240164;67.57350553460856;21860.062438820023;-161750.0;183610.06243882002
0.2480000000000002;-2734951899.0;-2639578567.0;480163.0;-23963.372688759628;-24160.018491705556;113.21260175528005;32382.21229766168;-153833.33333333334;186215.545630995
0.25200000000000017;-2830110437.0;-2735765790.0;813891.0;-23789.633331780216;-24046.805889950276;161.5667371906493;43434.83924485281;-144750.0;188184.8392448528
0.25600000000000017;-2924382374.0;-2831306746.0;1196309.0;-23567.98310279644;-23885.239152759626;210.45148497941045;55412.5572459443;-134833.33333333334;190245.89057927765
0.2600000000000002;-3017563584.0;-2926005896.0;1623522.0;-23295.30139771705;-23674.787667780216;262.6626769837785;68170.42626984767;-123916.66666666667;192087.09293651435
0.2640000000000002;-3109443828.0;-3019654395.0;2090811.0;-22970.059991536866;-23412.124990796437;317.54144907938826;81310.3515450457;-112416.66666666667;193727.01821171236
0.2680000000000002;-3199764669.0;-3112032729.0;2588901.0;-22580.208997214497;-23094.58354171705;373.05804618018374;97462.74858059223;-100333.33333333333;197796.08191392556
0.2720000000000002;-3288358720.0;-3202918830.0;3154161.0;-22148.5118069088;-22721.525495536865;444.11595432236936;107924.29757642458;-87750.0;195674.29757642458
0.2760000000000002;-3375103183.0;-3292028468.0;3669748.0;-21686.11467443346;-22277.409541214496;481.1935423056966;115599.28311883504;-74583.33333333333;190182.61645216838
0.2800000000000002;-3459887616.0;-3379213331.0;4110148.0;-21196.107194215645;-21796.2159989088;504.67553247534306;122501.87005445332;-61083.333333333336;183585.20338778666
0.2840000000000002;-3542598442.0;-3464379492.0;4491876.0;-20677.705680504034;-21291.540466433456;526.6533682178124;129600.37842790279;-47500.0;177100.3784279028
0.2880000000000002;-3623081830.0;-3547439040.0;4840598.0;-20120.84588487747;-20764.887098215644;551.8788257116103;139214.94890664052;-34166.666666666664;173381.6155733072
0.2920000000000002;-3701220520.0;-3628291073.0;5209243.0;-19534.671757205044;-20213.008272504034;592.2497156265636;146543.53191810695;-21083.333333333332;167626.8652514403
0.2960000000000002;-3776978673.0;-3706774107.0;5553587.0;-18939.53720021205;-19620.75855687747;619.2311516724258;148783.63924824863;-8333.333333333334;157116.97258158194
0.3000000000000002;-3850221509.0;-3782780216.0;5801543.0;-18310.708319341105;-19001.527405205044;618.9383329929951;157207.220217736;3916.6666666666665;153290.55355106932
0.3040000000000002;-3920864293.0;-3856310572.0;6089063.0;-17660.69496542821;-18382.58907221205;656.430800870945;162503.33847822365;15583.333333333334;146920.00514489034
0.3080000000000002;-3988836410.0;-3927215205.0;6350912.0;-16993.02862044526;-17726.158271341104;675.1508579128931;166916.58624573756;26416.666666666668;140499.9195790709
0.3120000000000002;-4054072714.0;-3995419234.0;6582824.0;-16309.075200884545;-17051.00741342821;689.9298969829506;170988.35489017892;36583.333333333336;134405.02155684558
0.3160000000000002;-4116508621.0;-4060863544.0;6790830.0;-15608.975851024108;-16361.07751644526;703.921995560715;175024.83746510916;45916.666666666664;129108.1707984425
0.32000000000000023;-4176080641.0;-4123492166.0;6983545.0;-14893.00446610303;-15657.155520884546;718.5999898604368;178992.8462302696;54583.333333333336;124409.51289693627
0.32400000000000023;-4232730931.0;-4183246388.0;7165747.0;-14162.571770269748;-14938.555531024109;733.4627769210783;182608.17395832055;62500.0;120108.17395832055
0.32800000000000024;-4286405152.0;-4240066759.0;7335828.0;-13418.554475485644;-14205.09275410303;746.7604718332823;186004.32369602594;70000.0;116004.32369602595
0.33200000000000024;-4337048694.0;-4293900088.0;7494936.0;-12660.885032921924;-13458.332282269748;759.2916627841041;189417.36064092992;77000.0;112417.36064092992
0.33600000000000024;-4384609888.0;-4344696250.0;7647556.0;-11890.298023180863;-12699.040619485644;772.320962563721;192646.75243526517;83750.0;108896.75243526517
0.34000000000000025;-4429040865.0;-4392403128.0;7793240.0;-11107.743500397532;-11926.719656921923;784.5726737410605;195638.63069583295;90166.66666666667;105471.96402916627
0.34400000000000025;-4470296226.0;-4436971715.0;7930850.0;-10313.839754481225;-11142.146983180863;795.7650827833313;198475.9364790766;96500.0;101975.93647907661
0.34800000000000025;-4508335600.0;-4478357242.0;8061016.0;-9509.843084967595;-10346.381900397531;806.3996819163058;200999.1673784075;102833.33333333333;98165.83404507417
0.35200000000000026;-4543123518.0;-4516517170.0;8181570.0;-8696.979158773458;-9539.982218481226;815.5698535136307;203215.98154853427;109083.33333333333;94132.64821520094
0.35600000000000026;-4574634878.0;-4551414819.0;8291301.0;-7877.839560953826;-8724.412364967595;823.3981021941372;204784.8994549081;115416.66666666667;89368.23278824142
0.36000000000000026;-4602866430.0;-4583018876.0;8383998.0;-7057.88770808474;-7901.014262773458;828.038509819632;204987.9632172715;121666.66666666667;83321.29655060483
0.36400000000000027;-4627828026.0;-4611310779.0;8444349.0;-6240.398795701725;-7072.975752953826;825.7455488690857;204372.22809575358;128083.33333333333;76288.89476242027
0.36800000000000027;-4649577939.0;-4636299699.0;8471673.0;-5437.477800626777;-6247.23020408474;820.1120163830146;200730.24876873704;134416.66666666666;66313.5821020704
0.3720000000000003;-4668295288.0;-4658008171.0;8430232.0;-4679.337228670187;-5427.118187701725;798.9426590749481;189535.1429891475;140750.0;48785.14298914751
0.3760000000000003;-4684227281.0;-4676520873.0;8225585.0;-3982.9980041933663;-4628.175528626777;738.4944599565902;174084.80611920517;146750.0;27334.806119205154
0.3800000000000003;-4697588942.0;-4692079597.0;7852316.0;-3340.4149514340843;-3889.681068670187;660.5054004768208;160645.7631898205;152333.33333333334;8312.429856487171
0.3840000000000003;-4708572974.0;-4704996299.0;7407357.0;-2746.008001164233;-3229.175668193366;599.8669887592819;148601.7375674628;157083.33333333334;-8481.595765870537
0.3880000000000003;-4717394605.0;-4715513533.0;6940559.0;-2205.407579722607;-2629.3086794340843;549.594342269851;135150.10536040654;161083.33333333334;-25933.2279729268
0.3920000000000003;-4724293225.0;-4723832390.0;6437785.0;-1724.6550694115185;-2079.7143371642333;492.3341174416264;120188.12757777209;164166.66666666666;-43978.53908889456
0.3960000000000003;-4729527986.0;-4730181910.0;5888685.0;-1308.6900062774707;-1587.3802197226069;428.03891031108833;103991.26578351195;166416.66666666666;-62425.40088315471
0.4000000000000003;-4733406318.0;-4734819275.0;5291289.0;-969.5830546010709;-1159.3413094115185;358.6150471340478;84776.73791909996;167750.0;-82973.26208090004
0.4040000000000003;-4736230260.0;-4738022180.0;4615862.0;-705.9853247274395;-800.7262622774707;274.2659596763998;65899.43246840783;168083.33333333334;-102183.90086492551
0.4080000000000003;-4738114825.0;-4740128021.0;3897761.0;-471.141260020465;-526.4603026010709;194.6600338736314;58711.016176743644;167416.66666666666;-108705.65048992302
0.4120000000000003;-4739190393.0;-4741455222.0;3340397.0;-268.8919671460538;-331.8002687274395;181.33712070697453;50562.323218602796;165833.33333333334;-115271.01011473054
0.4160000000000003;-4739745321.0;-4742057074.0;2866681.0;-138.73205003622232;-150.46314802046498;156.77255687441118;32539.979277457867;163666.66666666666;-131126.6873892088
0.4200000000000003;-4740051197.0;-4742031837.0;2286516.0;-76.46913392409184;6.309408853946195;74.46407710983149;15565.729028032621;160916.66666666666;-145350.93763863403
0.4240000000000003;-4740103372.0;-4741708744.0;1657547.0;-13.043639138445867;80.77348596377769;1.8818921121304868;15856.373696411492;157666.66666666666;-141810.29297025516
0.4280000000000003;-4740090460.0;-4741378123.0;1274751.0;3.2279278629845187;82.65537807590817;26.67707878564596;4067.8917503575963;153583.33333333334;-149515.44158297573
0.43200000000000033;-4740048234.0;-4740940794.0;850334.0;10.556656801055357;109.33245686155414;-24.47246499856962;1832.1822345177097;149166.66666666666;-147334.48443214895
0.43600000000000033;-4739991099.0;-4740601355.0;553121.0;14.283753227464633;84.85999186298451;-21.20371906192915;931.7741066023189;144250.0;-143318.22589339767
0.44000000000000034;-4739997481.0;-4740346730.0;355631.0;-1.5955344332137833;63.656272801055366;-15.231943573590726;-3969.821915169604;139166.66666666666;-143136.48858183625
0.44400000000000034;-4740001264.0;-4740153033.0;155552.0;-0.9457297198625594;48.42432922746464;-35.086871660678426;162.45117833780597;133750.0;-133587.5488216622
0.44800000000000034;-4740002412.0;-4740099684.0;98420.0;-0.2871281279294231;13.337457566786217;-4.834867286648775;164.65039798328408;128083.33333333333;-127918.68293535005
0.45200000000000035;-4740000715.0;-4740065674.0;63262.0;0.42429337986884375;8.502590280137442;-2.716566408066864;177.8553769495667;122416.66666666667;-122238.81128971711
0.45600000000000035;-4739841172.0;-4740042530.0;41815.0;39.88578839047423;5.786023872070578;-1.3474904922017341;9865.373752651347;116666.66666666667;-106801.29291401533
0.46000000000000035;-4739362089.0;-4740024776.0;183604.0;119.77062303159883;4.4385333798688436;53.07323901060539;19971.20866028115;111000.0;-91028.79133971885
0.46400000000000036;-4738281573.0;-4739794729.0;432640.0;270.1290483640735;57.511772390474235;103.79229064112461;37589.606333118674;105333.33333333333;-67743.72700021465
0.46800000000000036;-4736451815.0;-4739149513.0;867940.0;457.43956213624614;161.30406303159884;192.1472253324747;46827.628443043155;99833.33333333333;-53005.70489029017
0.47200000000000036;-4733763319.0;-4737735708.0;1283893.0;672.1238170667068;353.45128836407355;227.24200177217256;53671.06373261517;94666.66666666667;-40995.6029340515
0.47600000000000037;-4730058708.0;-4735412935.0;1649616.0;926.152869066661;580.6932901362461;249.79366293046064;63507.26299998854;89833.33333333333;-26326.07033334479
0.48000000000000037;-4725090504.0;-4732090988.0;2032280.0;1242.050928465317;830.4869530667067;290.76479599995423;78974.51484966399;85333.33333333333;-6358.818483669338
0.4840000000000004;-4718530311.0;-4727605982.0;2515478.0;1640.048214307564;1121.251749066661;362.2850673986559;99499.32146056175;81083.33333333333;18415.988127228433
0.4880000000000004;-4710056852.0;-4721671835.0;3141524.0;2118.3644213867683;1483.5368164653169;458.09770184224703;119579.05176980108;77083.33333333333;42495.71843646775
0.4920000000000004;-4699441097.0;-4713905297.0;3848445.0;2653.9387074609645;1941.634518307564;546.1806230792042;133893.57151854903;73583.33333333333;60310.23818521571
0.4960000000000004;-4686501741.0;-4703954037.0;4512940.0;3234.8388061798646;2487.815141386768;599.3658060741964;145225.02467972503;70666.66666666667;74558.35801305837
0.5000000000000003;-4671053928.0;-4691605314.0;5103573.0;3861.9531855764753;3087.1809474609645;637.6008667189003;156778.5948491527;68416.66666666667;88361.92818248601
0.5040000000000003;-4652949380.0;-4676706187.0;5652259.0;4526.136681688164;3724.781814179865;679.7882353966102;166045.87402792208;66666.66666666667;99379.20736125541
0.5080000000000003;-4632077469.0;-4659087907.0;6138527.0;5217.977469918112;4404.570049576475;710.8652241116888;172960.197057487;65416.666666666664;107543.53039082034
0.5120000000000003;-4608321380.0;-4638626166.0;6548697.0;5939.022094388583;5115.435273688164;731.2171082299483;180261.15611761794;65000.0;115261.15611761792
