Zeit[sec];Sollposition[°];Istposition[°];Positionsschleppfehler[°];Sollgeschwindigkeit[°/s];Istgeschwindigkeit[°/s];Geschwindigkeitsdifferenz[°/s];Sollbeschleunigung[°/s*s];Istbeschleunigung[°/s*s];Beschleunigungsdifferenz[°/s*s]
0.0;0.0;5.0;-5.0;-0.0;-0.00021499999999999997;0.0;0.0;0.0;0.0
0.004;0.0;5.0;-5.0;-0.0;-0.00021499999999999997;0.0;0.0;0.0;0.0
0.008;0.0;5.0;-5.0;-0.0;-0.00021499999999999997;0.0;0.0;0.0;0.0
0.012;0.0;5.0;-5.0;-0.0;-0.00021499999999999997;0.0;0.0;0.0;0.0
0.016;0.0;5.0;-5.0;-0.0;-0.00021499999999999997;0.0;0.0;0.0;0.0
0.02;0.0;5.0;-5.0;-0.0;-0.00021499999999999997;0.0;0.0;0.0;0.0
0.024;0.0;5.0;-5.0;-0.0;-0.00021499999999999997;0.0;0.0;0.0;0.0
0.028;0.0;5.0;-5.0;-0.0;-0.00021499999999999997;0.0;0.0;0.0;0.0
0.032;0.0;5.0;-5.0;-0.0;-0.00021499999999999997;0.0;0.0;0.0;0.0
0.036000000000000004;0.0;5.0;-5.0;-0.0;-0.00021499999999999997;0.0;0.0;0.0;0.0
0.04000000000000001;0.0;5.0;-5.0;-0.0;-0.00021499999999999997;0.0;0.0;0.0;0.0
0.04400000000000001;0.0;5.0;-5.0;-0.0;-0.00021499999999999997;0.0;0.0;0.0;0.0
0.048000000000000015;0.0;5.0;-5.0;-0.0;-0.00021499999999999997;0.0;0.0;0.0;0.0
0.05200000000000002;0.0;5.0;-5.0;-0.0;-0.00021499999999999997;0.0;0.0;0.0;0.0
0.05600000000000002;2742.0;5.0;-5.0;0.6855610811304613;-0.00021499999999999997;0.0;171.39027028261532;0.0;171.39027028261532
0.060000000000000026;30070.0;5.0;2737.0;6.832077470850429;-0.00021499999999999997;0.8034670811304613;1536.6290974299918;0.0;1536.6290974299918
0.06400000000000003;164394.0;3218.0;26852.0;33.58104616858702;0.8032520811304613;7.183461389719968;6687.242174434148;0.0;6687.242174434148
0.06800000000000003;608125.0;35164.0;129230.0;110.93277727827541;7.986713470850429;31.15122269773659;19337.9327774221;0.0;19337.9327774221
0.07200000000000004;1732279.0;191715.0;416410.0;281.0383879543919;39.13793616858702;89.7004711096884;42526.40266902912;83.33333333333333;42443.06933569579
0.07600000000000004;4078864.0;707068.0;1025211.0;586.6462473355351;128.8384072782754;196.28405367611649;76401.96484528581;416.6666666666667;75985.29817861914
0.08000000000000004;8307387.0;2007557.0;2071307.0;1057.1306815889302;325.1224609543919;350.5899873811432;117621.10856334877;1250.0;116371.10856334877
0.08400000000000005;15126541.0;4710406.0;3596981.0;1704.7884109166373;675.7124483355351;536.088416253395;161914.43233192677;2916.6666666666665;158997.7656652601
0.08800000000000005;25258780.0;9557609.0;5568932.0;2533.0595604850364;1211.8008645889302;732.4516223277071;207067.78739209977;5750.0;201317.78739209977
0.09200000000000005;39430876.0;17334618.0;7924162.0;3543.0238838276814;1944.2524869166373;929.546039568399;252491.08083566124;10000.0;242491.08083566124
0.09600000000000006;58349829.0;28829812.0;10601064.0;4729.737931211251;2873.7985264850363;1125.0711093426448;296678.51184589235;15750.0;280928.51184589235
0.10000000000000006;82654713.0;44825290.0;13524539.0;6076.22086325712;3998.869635827681;1312.4234723835698;336620.7330114673;23000.0;313620.7330114673
0.10400000000000006;112872780.0;66070462.0;16584251.0;7554.516348768121;5311.293108211251;1478.0505480458687;369573.87137775024;31750.0;337823.87137775024
0.10800000000000007;149394078.0;93227836.0;19644944.0;9130.323950694943;6789.34365625712;1609.905284511001;393951.9004817055;41916.666666666664;352035.2338150388
0.11200000000000007;192458551.0;126824831.0;22569247.0;10766.117881635979;8399.24894076812;1701.5526309268225;408948.48273525893;53333.333333333336;355615.1494019256
0.11600000000000008;242162455.0;167228037.0;25230514.0;12425.975469363011;10100.801571694943;1750.228411941036;414964.3969317581;65833.33333333333;349131.0635984247
0.12000000000000008;298491262.0;214632156.0;27530299.0;14082.201075495026;11851.029983635979;1758.7483427270327;414056.4015330037;79000.0;335056.4015330037
0.12400000000000008;361365647.0;269071269.0;29419993.0;15718.59549036061;13609.778326363012;1737.4824481320138;409098.60371639614;92666.66666666667;316431.93704972946
0.12800000000000009;430681420.0;330460312.0;30905335.0;17328.94248567343;15347.260774495026;1700.2641208655841;402586.7488282047;106250.0;296336.7488282047
0.1320000000000001;506334081.0;398650411.0;32031009.0;18913.164178205632;17047.52489536061;1658.7509773128186;396055.4231330507;119833.33333333333;276222.08979971736
0.1360000000000001;588228559.0;473475514.0;32858567.0;20473.618637565454;18706.27587267343;1619.8066865322035;390113.6148399555;133083.33333333334;257030.28150662218
0.1400000000000001;676279112.0;554779844.0;33448715.0;22012.63707337185;20326.08255920563;1585.8308233598218;384754.60895159905;146083.33333333334;238671.2756182657
0.1440000000000001;770403966.0;642427497.0;33851615.0;23531.212392024132;21911.913382565454;1556.3431358063972;379643.8296630704;158666.66666666666;220977.16299640373
0.1480000000000001;870518492.0;736300523.0;34103443.0;25028.63042472339;23468.25651837185;1529.40392265228;374354.50817481434;171083.33333333334;203271.17484148097
0.1520000000000001;976529307.0;836291164.0;34227328.0;26502.702468470005;24997.66044102413;1502.7450876992589;368518.0109366538;183250.0;185268.01093665382
0.1560000000000001;1088327916.0;942292786.0;34236521.0;27949.650870949707;26500.40552872339;1474.467342746615;361737.10061992554;195250.0;166487.1006199255
0.16000000000000011;1205783093.0;1054192277.0;34135639.0;29363.7929004463;27974.872871470005;1442.610476479702;353535.50737414847;206916.66666666666;146618.84070748178
0.16400000000000012;1328732694.0;1171862210.0;33920883.0;30737.398889223885;29417.483347949707;1404.9075214965924;343401.49719439616;218500.0;124901.49719439614
0.16800000000000012;1456968899.0;1295151773.0;33580921.0;32059.04972584024;30822.3908694463;1358.9876227775858;330412.7091540886;229750.0;100662.70915408859
0.17200000000000013;1590215545.0;1423877286.0;33091613.0;33311.65992524604;32181.378492223885;1300.610592616351;313152.5498514493;240750.0;72402.5498514493
0.17600000000000013;1728113961.0;1557805242.0;32410303.0;34474.60219997105;33481.989084840236;1223.3138694057998;290735.5686812534;251250.0;39485.568681253426
0.18000000000000013;1870230238.0;1696626453.0;31487508.0;35529.06755871229;34705.302954246035;1123.2620897250163;263616.33968530985;261333.33333333334;2283.0063519765245
0.18400000000000014;2016077337.0;1839940713.0;30289525.0;36461.77303299968;35828.56504397105;1002.9520897412367;233176.36857184698;270833.3333333333;-37656.964761486335
0.18800000000000014;2165140163.0;1987266781.0;28810556.0;37265.70479713746;36831.51713371229;869.1098072873865;200982.9410344464;279583.3333333333;-78600.3922988869
0.19200000000000014;2316898339.0;2138069288.0;27070875.0;37939.542224626486;37700.626940999675;729.1254811377876;168459.35687225574;287416.6666666667;-118957.30979441095
0.19600000000000015;2470844123.0;2291788297.0;25110042.0;38486.4441716298;38429.75242213746;589.5216084890271;136725.4867508291;294166.6666666667;-157441.1799158376
0.20000000000000015;2626495754.0;2447865393.0;22978730.0;38912.90578463128;39019.27403062649;455.2555310033131;106615.40325036913;299750.0;-193134.59674963087
0.20400000000000015;2783415210.0;2605763511.0;20732243.0;39229.86210192689;39474.5295616298;329.8626720014727;79239.07932390284;304083.3333333333;-224844.25400943047
0.20800000000000016;2941233245.0;2764981079.0;18434131.0;39454.50706330085;39804.392233631275;218.1375012956123;56161.240343490135;306750.0;-250588.75965650985
0.21200000000000016;3099665854.0;2925071197.0;16162048.0;39608.15028446403;40022.52973492689;126.94539237396384;38410.80529079409;307750.0;-269339.1947092059
0.21600000000000016;3258510735.0;3085669097.0;13996757.0;39711.21843777559;40149.47512730085;60.535708163173695;25767.038327890987;306666.6666666667;-280899.6283387757
0.22000000000000017;3417630494.0;3246509140.0;12001595.0;39779.93782028514;40210.010835464025;17.2761873115669;17179.845627386385;303500.0;-286320.15437261364
0.22400000000000017;3576932607.0;3407418288.0;10212206.0;39825.5263881836;40227.28702277559;-8.224344490452495;11397.141974615806;298333.3333333333;-286936.1913587175
0.22800000000000017;3736352747.0;3568294538.0;8638069.0;39855.03300892558;40219.06267828514;-22.099323101538175;7376.65518549511;291250.0;-283873.3448145049
0.23200000000000018;3895844904.0;3729082391.0;7270356.0;39873.037386589785;40196.9633551836;-29.305038258018612;4501.094416051274;282500.0;-277998.9055839487
0.23600000000000018;4055376564.0;3889753024.0;6091880.0;39882.91314144871;40167.65831692558;-32.670090335799614;2468.9387147318484;272083.3333333333;-269614.3946186015
0.24000000000000019;4214925832.0;4050292976.0;5083588.0;39887.31500290443;40134.98822658978;-33.480801141071424;1100.4653639283788;260416.66666666666;-259316.20130273828
0.2440000000000002;4374479431.0;4210699005.0;4226827.0;39888.397872099165;40101.50742544871;-32.43886154428765;270.71729868475813;247666.66666666666;-247395.9493679819
0.2480000000000002;4534030907.0;4370975279.0;3504152.0;39887.86724104937;40069.068563904424;-29.992155805259245;-132.65776244952576;234250.0;-234382.65776244953
0.25200000000000017;4693578461.0;4531131584.0;2899323.0;39886.886433893415;40039.076408099165;-26.538278049796645;-245.20178898819722;220416.66666666666;-220661.86845565485
0.25600000000000017;4853122722.0;4691181736.0;2396725.0;39886.063409334434;40012.53813004937;-22.592521155951545;-205.75613974506268;206583.33333333334;-206789.0894730784
0.2600000000000002;5012663297.0;4851141518.0;1981204.0;39885.14182001931;39989.94560889342;-18.690427558984084;-230.3973287816916;192833.33333333334;-193063.73066211503
0.2640000000000002;5172189930.0;5011026538.0;1636759.0;39881.656454963304;39971.25518133443;-15.73272431512305;-871.3412640008755;179333.33333333334;-180204.67459733423
0.2680000000000002;5331668625.0;5170848627.0;1341303.0;39869.6718590448;39955.52245701931;-16.18997305600351;-2996.148979626014;166250.0;-169246.148979626
0.2720000000000002;5491029630.0;5330605956.0;1062669.0;39840.249187940935;39939.332483963306;-23.965857918505208;-7355.66777596614;153416.66666666666;-160772.3344426328
0.2760000000000002;5650158765.0;5490267422.0;762208.0;39782.28186085723;39915.3666260448;-42.342494103868376;-14491.831770927092;140916.66666666666;-155408.49843759375
0.2800000000000002;5808889818.0;5649759518.0;399247.0;39682.76144424923;39873.02413194093;-73.57465008370491;-24880.104152000058;128500.0;-153380.10415200004
0.2840000000000002;5967001433.0;5808957315.0;-67497.0;39527.90184967405;39799.44948185723;-119.59040860799723;-38714.898643795095;116166.66666666667;-154881.56531046177
0.2880000000000002;6124218872.0;5967676751.0;-675318.0;39304.35802550629;39679.85907324923;-180.99589757518697;-55885.9560419387;103833.33333333333;-159719.28937527203
0.2920000000000002;6280216496.0;6125672203.0;-1453331.0;38999.4039602653;39498.86317567404;-256.99838316775276;-76238.51631024809;91333.33333333333;-167571.84964358143
0.2960000000000002;6434621017.0;6282639662.0;-2423166.0;38601.12858955315;39241.86479250629;-346.65697024099063;-99568.84267803798;78666.66666666667;-178235.50934470465
0.3000000000000002;6587014106.0;6438220493.0;-3599476.0;38098.27047511984;38895.2078222653;-448.8567007121528;-125714.52860832687;65666.66666666667;-191381.19527499354
0.3040000000000002;6736931725.0;6592005897.0;-4991791.0;37479.40297574781;38446.35112155315;-562.7276594333089;-154716.87484300672;52333.333333333336;-207050.20817634006
0.3080000000000002;6883866535.0;6743540390.0;-6608665.0;36733.700773709694;37883.62346211984;-688.3930813720217;-186425.55050952977;38750.0;-225175.55050952977
0.3120000000000002;7027281639.0;6892321311.0;-8454776.0;35853.77412309985;37195.23038074782;-825.084975038124;-219981.66265246074;24750.0;-244731.66265246074
0.3160000000000002;7166632615.0;7037801892.0;-10520253.0;34837.74242321972;36370.14540570969;-968.7421616098436;-254007.92497003204;10666.666666666666;-264674.5916366987
0.32000000000000023;7301387317.0;7179407504.0;-12774889.0;33688.673914868275;35401.40324409985;-1112.9810478801228;-287267.1270878618;-3666.6666666666665;-283600.46042119514
0.32400000000000023;7431038598.0;7316561192.0;-15173875.0;32412.818558432595;34288.422196219726;-1252.2249063514537;-318963.8391089202;-17916.666666666668;-301047.1724422535
0.32800000000000024;7555111135.0;7448705981.0;-17667383.0;31018.132814823643;33036.19728986827;-1383.0762004356766;-348671.43590223807;-32333.333333333332;-316338.1025689047
0.33200000000000024;7673164898.0;7575318465.0;-20207330.0;29513.4393033903;31653.121089432596;-1503.903464608953;-376173.3778583357;-46750.0;-329423.3778583357
0.33600000000000024;7784802847.0;7695915335.0;-22750437.0;27909.486030156895;30149.217624823643;-1614.0471124333417;-400988.31830835115;-61166.666666666664;-339821.65164168447
0.34000000000000025;7889685791.0;7810056017.0;-25253170.0;26220.734680327398;28535.1705123903;-1711.570792233404;-422187.8374573744;-75500.0;-346687.8374573744
0.34400000000000025;7987542266.0;7917350415.0;-27664624.0;24464.11770862626;26823.599720156897;-1792.4438718294987;-439154.2429252841;-89750.0;-349404.2429252841
0.34800000000000025;8078163983.0;8017475038.0;-29932772.0;22655.428199201695;25031.1558483274;-1854.1473357011382;-452172.37735614163;-104083.33333333333;-348089.0440228083
0.35200000000000026;8161391573.0;8110183072.0;-32019089.0;20806.89640236123;23177.00851262626;-1898.4011404245648;-462132.9492101158;-118583.33333333333;-343549.6158767825
0.35600000000000026;8237099282.0;8195297501.0;-33905928.0;18926.926444373083;21278.607372201695;-1929.6658738404622;-469992.48949703726;-133250.0;-336742.48949703726
0.36000000000000026;8305185746.0;8272693266.0;-35593984.0;17021.615142854283;19348.941498361233;-1952.5563659881518;-476327.8253796998;-148083.33333333334;-328244.49204636645
0.36400000000000027;8365572999.0;8342278806.0;-37093060.0;15096.812426240514;17396.38513237308;-1969.771569518798;-481200.67915344227;-162916.66666666666;-318284.0124867756
0.36800000000000027;8418217451.0;8403985260.0;-38412261.0;13161.112431693718;15426.613562854283;-1981.5283596137688;-483924.998636699;-177916.66666666666;-306008.33197003236
0.3720000000000003;8463150846.0;8457765600.0;-39548149.0;11233.348288425164;13445.085203240515;-1984.5431785467954;-481941.0358171385;-193000.0;-288941.0358171385
0.3760000000000003;8500549027.0;8503607768.0;-40456922.0;9349.54470520062;11460.54202469372;-1966.8413822685543;-470950.895806136;-208250.0;-262700.895806136
0.3800000000000003;8530781958.0;8541582570.0;-41033543.0;7558.232528009322;9493.700642425165;-1908.5982862245446;-447828.0442978246;-223500.0;-224328.04429782458
0.3840000000000003;8554413141.0;8571922979.0;-41141021.0;5907.795384853385;7585.10235620062;-1795.9337311912977;-412609.28578898415;-238500.0;-174109.28578898415
0.3880000000000003;8572163492.0;8595079653.0;-40666512.0;4437.587547738307;5789.168625009323;-1630.0332561559371;-367551.95927876956;-253083.33333333334;-114468.62594543623
0.3920000000000003;8584861000.0;8611716194.0;-39552702.0;3174.3768991236775;4159.135368853385;-1422.3140071150783;-315802.66215365735;-266750.0;-49052.662153657366
0.3960000000000003;8593386341.0;8622663479.0;-37802479.0;2131.335130907051;2736.821361738307;-1187.9510596146295;-260760.44205415668;-279250.0;18489.55794584333
0.4000000000000003;8598629846.0;8628858960.0;-35472619.0;1310.876141453946;1548.8703021236777;-942.8577882166267;-205114.7473632762;-290166.6666666667;85051.91930339049
0.4040000000000003;8601465873.0;8631283010.0;-32653164.0;709.0067344308089;606.012513907051;-699.2224244531048;-150467.35175578427;-299250.0;148782.64824421573
0.4080000000000003;8602714445.0;8630910171.0;-29444298.0;312.14306631063596;-93.20991054605383;-463.88816902313704;-99215.91703004325;-306416.6666666667;207200.74963662346
0.4120000000000003;8603068890.0;8628681779.0;-25967334.0;88.61107571742859;-557.0980795691909;-247.35421612017296;-55882.99764830184;-311500.0;255617.00235169815
0.4160000000000003;8603029011.0;8625463970.0;-22395080.0;-9.969669787376057;-804.4522956893638;-69.92506859320747;-24645.186376201164;-314666.6666666667;290021.4802904655
0.4200000000000003;8602888968.0;8621966461.0;-18937450.0;-35.01062754816846;-874.3773642825713;50.09734449519544;-6260.2394401981;-315666.6666666667;309406.4272264686
0.4240000000000003;8602779019.0;8618669341.0;-15780373.0;-27.487249999213667;-824.2800197873759;110.71335323920744;1880.8443872386977;-314916.6666666667;316797.51105390536
0.4280000000000003;8602728635.0;8615815075.0;-13036056.0;-12.59620879748734;-713.5666665481684;125.52900854895483;3722.760300431582;-312583.3333333333;316306.0936337649
0.43200000000000033;8602722386.0;8613462925.0;-10734290.0;-1.5621953349140767;-588.0376579992136;113.86697920172628;2758.5033656433156;-309166.6666666667;311925.17003231
0.43600000000000033;8602735735.0;8611566243.0;-8843857.0;3.337263234836874;-474.1706787974873;92.32263246257327;1224.8646424377378;-304750.0;305974.8646424377
0.44000000000000034;8602751094.0;8610038851.0;-7303116.0;3.8397244795086847;-381.84804633491405;71.15132156975096;125.61531116795265;-299416.6666666667;299542.28197783465
0.44400000000000034;8602760799.0;8608796065.0;-6044971.0;2.426342317625962;-310.6967247651631;54.60269624467179;-353.3455404706807;-293250.0;292896.6544595293
0.44800000000000034;8602764167.0;8607771689.0;-5010890.0;0.8420197208740409;-256.0940285204913;43.0521008381173;-396.08064918798027;-286166.6666666667;285770.5860174787
0.45200000000000035;8602763524.0;8606919522.0;-4155355.0;-0.1608736026189351;-213.041927682374;35.20368240324805;-250.72333087324398;-278250.0;277999.27666912676
0.45600000000000035;8602761440.0;8606208170.0;-3444646.0;-0.5207940972864675;-177.83824527912594;29.557593676507025;-89.9801236668831;-269250.0;269160.0198763331
0.46000000000000035;8602759550.0;8605615048.0;-2853608.0;-0.47264595441791235;-148.28065160261892;25.054713505332458;12.037035717138794;-259166.66666666666;259178.7037023838
0.46400000000000036;8602755649.0;8605122145.0;-2362595.0;-0.9751433568711899;-123.22593809728646;21.16170714286855;-125.6243506133194;-248083.33333333334;247957.70898272
0.46800000000000036;8602727360.0;8604713889.0;-1958240.0;-7.072234191852723;-102.06423095441791;16.884767597546727;-1524.2727087453832;-236166.66666666666;234642.39395792127
0.47200000000000036;8602590172.0;8604373172.0;-1645812.0;-34.297091942072534;-85.17946335687118;7.3373131650184575;-6806.214437554952;-223500.0;216693.78556244506
0.47600000000000037;8602136964.0;8604061804.0;-1471632.0;-113.30208080557331;-77.84215019185272;-19.7351177502198;-19751.247215875195;-210083.33333333334;190332.08611745815
0.48000000000000037;8600988404.0;8603671495.0;-1534531.0;-287.13981962197266;-97.57726794207252;-81.70964586350078;-43459.43470409984;-196083.33333333334;152623.8986292335
0.4840000000000004;8598590442.0;8602954348.0;-1965944.0;-599.4905694725422;-179.2869138055733;-192.38849781639937;-78087.6874626424;-181916.66666666666;103828.97920402426
0.4880000000000004;8594268872.0;8601467647.0;-2877205.0;-1080.3923455073755;-371.67541162197267;-351.5349728505696;-120225.4440087083;-167833.33333333334;47607.88932462504
0.4920000000000004;8587299092.0;8598574806.0;-4305934.0;-1742.445007478852;-723.2103844725423;-542.3371230348332;-165513.16549286913;-154416.66666666666;-11096.498826202464
0.4960000000000004;8576942299.0;8593512616.0;-6213524.0;-2589.1980597341453;-1265.5475075073755;-744.0790319714765;-211688.26306382334;-142000.0;-69688.26306382334
0.5000000000000003;8562455164.0;8585474110.0;-8531811.0;-3621.783679396894;-2009.626539478852;-946.4393932552935;-258146.4049156872;-130916.66666666667;-127229.73824902052
0.5040000000000003;8543114443.0;8573649847.0;-11194683.0;-4835.179871715856;-2956.0659327341455;-1147.0891156627486;-303349.04807974055;-121250.0;-182099.04807974055
0.5080000000000003;8518266145.0;8557237227.0;-14122784.0;-6212.074278502094;-4103.155048396894;-1339.3045353189618;-344223.6016965594;-113166.66666666667;-231056.93502989272
