Zeit[sec];Sollposition[°];Istposition[°];Positionsschleppfehler[°];Sollgeschwindigkeit[°/s];Istgeschwindigkeit[°/s];Geschwindigkeitsdifferenz[°/s];Sollbeschleunigung[°/s*s];Istbeschleunigung[°/s*s];Beschleunigungsdifferenz[°/s*s]
0.0;0.0;4.0;-4.0;1.3796740478600566e-34;-0.00023999999999999998;0.0;5.7081034996089586e-33;0.0;5.7081034996089586e-33
0.004;0.0;4.0;-4.0;9.316126212583994e-35;-0.00023999999999999998;0.0;-1.120153566504143e-32;0.0;-1.120153566504143e-32
0.008;0.0;4.0;-4.0;3.892212583753845e-35;-0.00023999999999999998;0.0;-1.3559784072075373e-32;0.0;-1.3559784072075373e-32
0.012;0.0;4.0;-4.0;2.1154510132955174e-36;-0.00023999999999999998;0.0;-9.201668706060733e-33;0.0;-9.201668706060733e-33
0.016;0.0;4.0;-4.0;-1.336983908196514e-35;-0.00023999999999999998;0.0;-3.871322523815165e-33;0.0;-3.871322523815165e-33
0.02;0.0;4.0;-4.0;-1.4314207285222368e-35;-0.00023999999999999998;0.0;-2.3609205081430668e-34;0.0;-2.3609205081430668e-34
0.024;0.0;4.0;-4.0;-9.098567001997532e-36;-0.00023999999999999998;0.0;1.3039100708062088e-33;0.0;1.3039100708062088e-33
0.028;0.0;4.0;-4.0;-3.467107641948601e-36;-0.00023999999999999998;0.0;1.4078648400122329e-33;0.0;1.4078648400122329e-33
0.032;0.0;4.0;-4.0;1.300673441293731e-37;-0.00023999999999999998;0.0;8.992937465194935e-34;0.0;8.992937465194935e-34
0.036000000000000004;0.0;4.0;-4.0;1.511832154293886e-36;-0.00023999999999999998;0.0;3.454412025411282e-34;0.0;3.454412025411282e-34
0.04000000000000001;0.0;4.0;-4.0;1.4715373713710903e-36;-0.00023999999999999998;0.0;-1.00736957306989e-35;0.0;-1.00736957306989e-35
0.04400000000000001;0.0;4.0;-4.0;8.806392190580376e-37;-0.00023999999999999998;0.0;-1.4772453807826317e-34;0.0;-1.4772453807826317e-34
0.048000000000000015;0.0;4.0;-4.0;3.0125744617310626e-37;-0.00023999999999999998;0.0;-1.4484544322123284e-34;0.0;-1.4484544322123284e-34
0.05200000000000002;680.0;4.0;-4.0;0.17011214087912793;-0.00023999999999999998;0.0;42.528035219781984;0.0;42.528035219781984
0.05600000000000002;7461.0;4.0;676.0;1.6952819481846397;-0.00023999999999999998;0.21091214087912794;381.29245182637794;0.0;381.29245182637794
0.060000000000000026;40792.0;846.0;6615.0;8.33265454229021;0.21067214087912794;1.8815098073055119;1659.3431485263927;0.0;1659.3431485263927
0.06400000000000003;150957.0;9214.0;31578.0;27.541422311784196;2.0921819481846398;8.13515259410557;4802.191942373496;0.0;4802.191942373496
0.06800000000000003;430409.0;50123.0;100834.0;69.86301694028401;10.22733454229021;23.36412776949399;10580.398657124953;0.0;10580.398657124953
0.07200000000000004;1014820.0;184488.0;245921.0;146.10250482183682;33.5914623117842;51.02681462849981;19059.8719703882;83.33333333333333;18976.53863705487
0.07600000000000004;2070228.0;522961.0;491859.0;263.8522168524026;84.618276940284;90.99576788155281;29437.428007641443;333.3333333333333;29104.09467430811
0.08000000000000004;3776454.0;1225417.0;844811.0;426.55649223171076;175.6140448218368;138.92683203056575;40676.068844827045;750.0;39926.068844827045
0.08400000000000005;6318665.0;2483580.0;1292874.0;635.5526764729302;314.54087685240256;189.58805537930823;52249.04606030486;1500.0;50749.04606030486
0.08800000000000005;9885240.0;4500095.0;1818570.0;891.6435750863583;504.1289322317108;240.5379442412194;64022.724653357014;2583.3333333333335;61439.391320023686
0.09200000000000005;14661831.0;7478762.0;2406478.0;1194.1478594610771;744.6668764729302;291.365378613428;75626.07109367971;4083.3333333333335;71542.73776034638
0.09600000000000006;20819456.0;11622891.0;3038940.0;1539.4059686803348;1036.0322550863582;340.45200437471885;86314.52730481442;5916.666666666667;80397.86063814776
0.10000000000000006;28503495.0;17128828.0;3690628.0;1921.0097247811514;1376.484259461077;384.35938921925776;95400.93902520413;8166.666666666667;87234.27235853748
0.10400000000000006;37827036.0;24172202.0;4331293.0;2330.885230621033;1760.8436486803348;420.0436561008164;102468.87645997037;10833.333333333334;91635.54312663704
0.10800000000000007;48867185.0;32895751.0;4931285.0;2760.0370470198714;2180.887304781151;445.8750258398818;107287.95409970962;13833.333333333334;93454.62076637629
0.11200000000000007;61666194.0;43402800.0;5464385.0;3199.752060611634;2626.762330621033;461.13781639883837;109928.75339794069;17166.666666666668;92762.08673127402
0.11600000000000008;76239220.0;55754400.0;5911794.0;3643.2563321303032;3087.9001470198714;466.5595535917628;110876.06787966729;20583.333333333332;90292.73454633396
0.12000000000000008;92585413.0;69972238.0;6266982.0;4086.5480998823873;3554.459700611634;464.81555151866905;110822.94193802102;24166.666666666668;86656.27527135435
0.12400000000000008;110697637.0;86049339.0;6536074.0;4528.05583147441;4019.275252130303;459.4372877520841;110376.93289800575;27750.0;82626.93289800575
0.12800000000000009;130568515.0;103964189.0;6733448.0;4967.719147397734;4478.712539882387;453.3501715920229;109915.82898083083;31416.666666666668;78499.16231416418
0.1320000000000001;152192887.0;123692439.0;6876076.0;5406.092762934059;4932.06271147441;448.22099592332324;109593.40388408123;35000.0;74593.40388408123
0.1360000000000001;175567933.0;145213573.0;6979314.0;5843.761160841635;5380.283707397733;444.5678955363255;109417.09947689401;38500.0;70917.09947689401
0.1400000000000001;200692239.0;168512979.0;7054954.0;6281.076378246619;5824.851602934059;442.2067979075755;109328.80435124616;42000.0;67328.80435124616
0.1440000000000001;227564728.0;193581212.0;7111027.0;6718.12191382153;6267.0584008416345;440.67959740498463;109261.38389372773;45500.0;63761.383893727725
0.1480000000000001;256183869.0;220412163.0;7152565.0;7154.784976731307;6707.737998246619;439.5378155749113;109165.76572744429;48916.666666666664;60249.09906077763
0.1520000000000001;286547135.0;249001266.0;7182603.0;7590.816099924866;7147.27581382153;438.46534290977706;109007.7807983896;52416.666666666664;56591.11413172294
0.1560000000000001;318650556.0;279344230.0;7202905.0;8025.854903732505;7585.7411567313075;437.24924319355796;108759.70095190973;55833.333333333336;52926.3676185764
0.16000000000000011;352488467.0;311436191.0;7214365.0;8459.477259678422;8022.990399924865;435.72640380763914;108405.58898647942;59333.333333333336;49072.25565314608
0.16400000000000012;388053398.0;345271058.0;7217409.0;8891.232232869399;8458.716803732505;433.80499594591856;107938.74329774416;62666.666666666664;45272.07663107751
0.16800000000000012;425335973.0;380841145.0;7212253.0;9320.643494323567;8892.521799678423;431.44561319097556;107352.81536354205;66083.33333333333;41269.48203020872
0.17200000000000013;464324913.0;418137014.0;7198959.0;9747.234488730719;9323.967412869399;428.61362145416933;106647.74860178796;69416.66666666667;37231.081935121285
0.17600000000000013;505007165.0;457147338.0;7177575.0;10170.562347520252;9752.581034323568;425.30795440715156;105831.96469738323;72833.33333333333;32998.6313640499
0.18000000000000013;547368049.0;497858893.0;7148272.0;10590.22057237466;10177.88898873072;421.5696787895322;104914.55621360183;76166.66666666667;28747.889546935156
0.18400000000000014;591391432.0;540256727.0;7111322.0;11005.845353685321;10599.458667520252;417.44122485440676;103906.1953276655;79500.0;24406.1953276655
0.18800000000000014;637059929.0;584324326.0;7067106.0;11417.123733447655;11016.899892374659;412.97182131066256;102819.59494058356;82833.33333333333;19986.261607250228
0.19200000000000014;684355059.0;630043812.0;7016117.0;11823.781780195019;11429.871713685321;408.21903976233443;101664.5116868408;86083.33333333333;15581.178353507468
0.19600000000000015;733257325.0;677396175.0;6958884.0;12225.565952338291;11838.090753447656;403.2240667473634;100446.04303581809;89250.0;11196.043035818093
0.20000000000000015;783746119.0;726361434.0;6895891.0;12622.197946143671;12241.314820195019;398.004592143272;99157.99845134506;92333.33333333333;6824.665118011737
0.20400000000000015;835799413.0;776918711.0;6827408.0;13013.322921328554;12639.319412338291;392.5230138053812;97781.24379622067;95250.0;2531.2437962206786
0.20800000000000016;889393488.0;829046080.0;6753333.0;13398.518023766743;13031.842426143672;386.6804751848813;96298.77560954719;98000.0;-1701.2243904528077
0.21200000000000016;944502772.0;882720171.0;6673317.0;13777.320335621856;13418.522901328553;380.3941424381901;94700.57796377841;100250.0;-5549.422036221586
0.21600000000000016;1001099702.0;937915839.0;6586933.0;14149.231870082802;13798.917043766744;373.61927185511195;92977.88361523635;102250.0;-9272.116384763649
0.22000000000000017;1059154720.0;994605984.0;6493718.0;14513.753781147496;14172.536315621855;366.31863446094576;91130.4777661735;103666.66666666667;-12536.188900493173
0.22400000000000017;1118636454.0;1052761403.0;6393317.0;14870.43273591453;14538.854950082801;358.49785106469426;89169.73869175854;104750.0;-15580.261308241461
0.22800000000000017;1179511943.0;1112350814.0;6285640.0;15218.871647751457;14897.352801147495;350.2183347670343;87109.72795923181;105333.33333333333;-18223.605374101524
0.23200000000000018;1241746921.0;1173341098.0;6170845.0;15558.743708392225;15247.57113591453;341.5512118369279;84968.01516019195;105500.0;-20531.984839808047
0.23600000000000018;1305306243.0;1235697587.0;6049334.0;15889.829652786693;15589.122347751458;332.58140064076724;82771.48609861705;105250.0;-22478.51390138294
0.24000000000000019;1370154384.0;1299384401.0;5921842.0;16212.03444465116;15921.703748392225;323.4364243944692;80551.19796611689;104666.66666666667;-24115.468700549784
0.2440000000000002;1436255877.0;1364364961.0;5789423.0;16525.37269362203;16245.140172786694;314.25965186446774;78334.56224271731;103833.33333333333;-25498.771090616017
0.2480000000000002;1503575734.0;1430602560.0;5653317.0;16829.963458730643;16559.399824651162;305.17188897086817;76147.69127715318;102750.0;-26602.30872284683
0.25200000000000017;1572079858.0;1498060846.0;5514888.0;17126.030113798846;16864.57171362203;296.2850251086129;74016.6637670509;101583.33333333333;-27566.669566282442
0.25600000000000017;1641735329.0;1566704272.0;5375586.0;17413.866770982982;17160.856738730643;287.70853506820276;71959.16429603403;100333.33333333333;-28374.169037299296
0.2600000000000002;1712510551.0;1636498533.0;5236796.0;17693.804802042687;17448.565273798846;279.5092571841378;69984.5077649261;99083.33333333333;-29098.825568407236
0.2640000000000002;1784375372.0;1707410831.0;5099720.0;17966.20437029635;17728.074530982984;271.713471059702;68099.89206341561;97750.0;-29650.10793658439
0.2680000000000002;1857301096.0;1779409983.0;4965389.0;18231.430110051704;17999.788002042686;264.33970825366487;66306.43493883872;96500.0;-30193.56506116128
0.2720000000000002;1931260399.0;1852466493.0;4834603.0;18489.824788519138;18264.12771029635;257.3785797553537;64598.66961685839;95166.66666666667;-30567.997049808284
0.2760000000000002;2006227237.0;1926552518.0;4707881.0;18741.70860839589;18521.506290051704;250.7913584674352;62970.954969187915;93750.0;-30779.045030812085
0.2800000000000002;2082176709.0;2001641708.0;4585529.0;18987.367207114767;18772.29764851914;244.5426998767507;61414.64967971933;92250.0;-30835.350320280668
0.2840000000000002;2159084800.0;2077709069.0;4467640.0;19227.021802437794;19016.84034839589;238.58525871887832;59913.648830756756;90750.0;-30836.351169243244
0.2880000000000002;2236928072.0;2154730771.0;4354029.0;19460.817127809747;19255.42560711477;232.8379353230266;58448.83134298834;89250.0;-30801.168657011658
0.2920000000000002;2315683404.0;2232683825.0;4244247.0;19688.832019419806;19488.263542437795;227.2084053719518;57003.72290251471;87750.0;-30746.27709748529
0.2960000000000002;2395327800.0;2311545712.0;4137692.0;19911.098093969384;19715.471947809747;221.6215916100591;55566.51863739444;86166.66666666667;-30600.148029272234
0.3000000000000002;2475838281.0;2391294086.0;4033714.0;20127.619221697227;19937.093539419806;216.02739454957918;54130.28193196078;84583.33333333333;-30453.051401372548
0.3040000000000002;2557191810.0;2471906569.0;3931712.0;20338.38125203114;20153.120933969385;210.4010077278399;52690.50758347839;82916.66666666667;-30226.15908318828
0.3080000000000002;2639365174.0;2553360656.0;3831154.0;20543.340119897206;20363.521941697225;204.72855033391534;51239.716966516426;81250.0;-30010.283033483574
0.3120000000000002;2722334802.0;2635633657.0;3731517.0;20742.405921128433;20568.25049203114;198.98064786606483;49766.450307806736;79583.33333333333;-29816.883025526593
0.3160000000000002;2806075357.0;2718702581.0;3632221.0;20935.137773812985;20767.231139897205;193.10804123122944;48182.963171138;77833.33333333333;-29650.37016219533
0.32000000000000023;2890554064.0;2802543937.0;3531420.0;21119.67583450405;20960.339181128435;186.683792684551;46134.51517276644;76166.66666666667;-30032.15149390023
0.32400000000000023;2975721052.0;2887132028.0;3422036.0;21291.746053077077;21147.022973812986;177.97502069106486;43017.55464325652;74416.66666666667;-31399.112023410155
0.32800000000000024;3061501855.0;2972432019.0;3289033.0;21445.199760123014;21324.99799450405;164.0900385730274;38363.426761484334;72750.0;-34386.573238515666
0.33200000000000024;3147795845.0;3058388371.0;3113484.0;21573.49630240716;21489.088033077078;142.92076704593637;32074.135571036095;70916.66666666667;-38842.53109563058
0.33600000000000024;3234478760.0;3144916406.0;2879439.0;21670.727894374795;21632.008800123014;114.25384228414259;24307.897991909158;69083.33333333333;-44775.43534142417
0.34000000000000025;3321407710.0;3231901456.0;2577304.0;21732.236262456998;21746.262642407157;79.10349196763855;15377.092020550663;67083.33333333333;-51706.241312782666
0.34400000000000025;3408428179.0;3319202920.0;2204790.0;21755.116270301776;21825.366134374795;39.1575280822035;5720.001961194612;65000.0;-59279.99803880539
0.34800000000000025;3495381298.0;3406661014.0;1767165.0;21738.27881364705;21864.523662457;-3.377492155221262;-4209.36416368113;62666.666666666664;-66876.0308303478
0.35200000000000026;3582110434.0;3494105598.0;1275700.0;21682.282990417512;21861.146170301778;-46.3253566547246;-13998.955807384846;60083.333333333336;-74082.28914071817
0.35600000000000026;3668469585.0;3581364881.0;745553.0;21589.786720948483;21814.820813647053;-87.8046432295414;-23124.06736725734;57166.666666666664;-80290.734033924
0.36000000000000026;3754333923.0;3668272945.0;196640.0;21466.083305164077;21727.01617041751;-125.43104946902895;-30925.853946101597;53916.666666666664;-84842.52061276826
0.36400000000000027;3839607064.0;3754679285.0;-345362.0;21318.28441802706;21601.585120948483;-156.22353578440743;-36949.72178425451;50500.0;-87449.7217842545
0.36800000000000027;3924222034.0;3840460731.0;-853667.0;21153.741534524997;21445.361585164075;-178.29718713701732;-41135.72087551529;46916.666666666664;-88052.38754218195
0.3720000000000003;4008138294.0;3925528988.0;-1306954.0;20979.06392598159;21267.064398027058;-191.74010350205936;-43669.40213585167;43166.666666666664;-86836.06880251833
0.3760000000000003;4091336500.0;4009830285.0;-1691991.0;20799.55058561102;21075.324294525;-197.77982854340735;-44878.335092642374;39250.0;-84128.33509264237
0.3800000000000003;4173811476.0;4093340462.0;-2003962.0;20618.74292662556;20877.54446598159;-198.23160037057096;-45201.91474636522;35250.0;-80451.91474636522
0.3840000000000003;4255565205.0;4176057713.0;-2246237.0;20438.43133051954;20679.31286561102;-195.34415898545922;-45077.89902650529;31333.333333333332;-76411.23235983863
0.3880000000000003;4336601712.0;4257993587.0;-2428382.0;20259.125657365665;20483.96870662556;-191.24029610602156;-44826.41828846863;27500.0;-72326.41828846863
0.3920000000000003;4416924345.0;4339164500.0;-2562788.0;20080.65738276875;20292.72841051954;-187.37003315387483;-44617.06864922871;23750.0;-68367.06864922872
0.3960000000000003;4496534968.0;4419585933.0;-2661588.0;19902.65488654943;20105.358377365665;-184.39627459691474;-44500.62405483004;20083.333333333332;-64583.95738816337
0.4000000000000003;4575434176.0;4499269781.0;-2734813.0;19724.801060645183;19920.96210276875;-182.39599621931848;-44463.456476061765;16500.0;-60963.456476061765
0.4040000000000003;4653621790.0;4578224045.0;-2789869.0;19546.902506013532;19738.56610654943;-181.15718590424876;-44474.63865791269;13000.0;-57474.63865791269
0.4080000000000003;4731097226.0;4656453680.0;-2831890.0;19368.858084873595;19557.408920645183;-180.41981463165212;-44511.105284984296;9500.0;-54011.105284984296
0.4120000000000003;4807859648.0;4733961636.0;-2864410.0;19190.60466210894;19376.98910601353;-179.9956211399367;-44563.35569116345;6083.333333333333;-50646.68902449679
0.4160000000000003;4883907903.0;4810749609.0;-2889961.0;19012.062605642994;19196.993484873594;-179.78648276465174;-44635.514116486775;2833.3333333333335;-47468.84744982011
0.4200000000000003;4959240300.0;4886818437.0;-2910534.0;18833.09843733639;19017.207002108942;-179.7764364659488;-44741.042076650956;-416.6666666666667;-44324.37540998429
0.4240000000000003;5033854423.0;4962168159.0;-2927859.0;18653.52981021311;18837.430565642993;-180.00366830660278;-44892.15678082019;-3666.6666666666665;-41225.49011415352
0.4280000000000003;5107747008.0;5036797866.0;-2943443.0;18473.14541775094;18657.42689733639;-180.50366712328105;-45096.09811554219;-6916.666666666667;-38179.431448875526
0.43200000000000033;5180913869.0;5110705558.0;-2958550.0;18291.714351522292;18476.92323021311;-181.2908124621681;-45357.766557161995;-10000.0;-35357.766557161995
0.43600000000000033;5253349895.0;5183888087.0;-2974218.0;18109.005834283187;18295.63241775094;-182.37114622864829;-45677.12930977632;-13083.333333333334;-32593.795976442983
0.44000000000000034;5325049145.0;5256341132.0;-2991237.0;17924.8114919514;18113.261271522293;-183.72965723910602;-46048.58558294654;-16083.333333333334;-29965.252249613208
0.44400000000000034;5396004947.0;5328059258.0;-3010113.0;17738.949798731162;17929.531614283187;-185.32690233178437;-46465.42330505963;-19166.666666666668;-27298.756638392962
0.44800000000000034;5466210032.0;5399036076.0;-3031129.0;17551.270287118532;17744.204711951403;-187.12265322024177;-46919.87790315761;-22083.333333333332;-24836.54456982428
0.45200000000000035;5535656695.0;5469264404.0;-3054372.0;17361.664976967873;17557.08205873116;-189.07409161263058;-47401.327537664656;-25166.666666666668;-22234.66087099799
0.45600000000000035;5604336983.0;5538736435.0;-3079740.0;17170.07108168602;17368.00796711853;-191.12739015065745;-47898.47382046355;-28000.0;-19898.47382046355
0.46000000000000035;5672242832.0;5607443957.0;-3106974.0;16976.461485680764;17176.880576967873;-193.22793528185503;-48402.399001313825;-30916.666666666668;-17485.732334647157
0.46400000000000036;5739366158.0;5675378567.0;-3135735.0;16780.830795885264;16983.652641686018;-195.33525600525536;-48907.67244887502;-33583.333333333336;-15324.339115541683
0.46800000000000036;5805698893.0;5742531836.0;-3165678.0;16583.182974209187;16788.317385680763;-197.42726979549843;-49411.95541901925;-36250.0;-13161.95541901925
0.47200000000000036;5871232982.0;5808895396.0;-3196503.0;16383.521507911491;16590.890115885264;-199.49732167607726;-49915.36657442384;-38666.666666666664;-11248.699907757178
0.47600000000000037;5935960343.0;5874460967.0;-3227985.0;16181.839296667544;16391.392794209187;-201.55038629769479;-50420.55281098692;-40833.333333333336;-9587.219477653583
0.48000000000000037;5999872793.0;5939220336.0;-3259993.0;15978.111920928233;16189.842407911492;-203.60269124394836;-50931.843934827615;-42666.666666666664;-8265.177268160947
0.4840000000000004;6062961991.0;6003165294.0;-3292501.0;15772.298685960157;15986.239716667544;-205.67785573930996;-51453.308742019086;-44166.666666666664;-7286.642075352425
0.4880000000000004;6125219363.0;6066287541.0;-3325550.0;15564.342287786898;15780.561860928234;-207.79617496807623;-51989.09954331475;-45416.666666666664;-6572.432876648087
0.4920000000000004;6186636031.0;6128578603.0;-3359240.0;15354.166147545904;15572.765685960157;-209.97779817326045;-52544.03506024846;-46333.333333333336;-6210.701726915126
