Zeit[sec];Sollposition[°];Istposition[°];Positionsschleppfehler[°];Sollgeschwindigkeit[°/s];Istgeschwindigkeit[°/s];Geschwindigkeitsdifferenz[°/s];Sollbeschleunigung[°/s*s];Istbeschleunigung[°/s*s];Beschleunigungsdifferenz[°/s*s]
0.0;-9979199999.0;-9979200003.0;4.0;0.0;0.00023999999999999998;0.0;0.0;0.0;0.0
0.004;-9979199999.0;-9979200003.0;4.0;0.0;0.00023999999999999998;0.0;0.0;0.0;0.0
0.008;-9979199999.0;-9979200003.0;4.0;0.0;0.00023999999999999998;0.0;0.0;0.0;0.0
0.012;-9979199999.0;-9979200003.0;4.0;0.0;0.00023999999999999998;0.0;0.0;0.0;0.0
0.016;-9979199999.0;-9979200003.0;4.0;0.0;0.00023999999999999998;0.0;0.0;0.0;0.0
0.02;-9979199999.0;-9979200003.0;4.0;0.0;0.00023999999999999998;0.0;0.0;0.0;0.0
0.024;-9979199999.0;-9979200003.0;4.0;0.0;0.00023999999999999998;0.0;0.0;0.0;0.0
0.028;-9979199999.0;-9979200003.0;4.0;0.0;0.00023999999999999998;0.0;0.0;0.0;0.0
0.032;-9979199999.0;-9979200003.0;4.0;0.0;0.00023999999999999998;0.0;0.0;0.0;0.0
0.036000000000000004;-9979199999.0;-9979200003.0;4.0;0.0;0.00023999999999999998;0.0;0.0;0.0;0.0
0.04000000000000001;-9979199999.0;-9979200003.0;4.0;0.0;0.00023999999999999998;0.0;0.0;0.0;0.0
0.04400000000000001;-9979199999.0;-9979200003.0;4.0;0.0;0.00023999999999999998;0.0;0.0;0.0;0.0
0.048000000000000015;-9979199999.0;-9979200003.0;4.0;0.0;0.00023999999999999998;0.0;0.0;0.0;0.0
0.05200000000000002;-9979199999.0;-9979200003.0;4.0;0.0;0.00023999999999999998;0.0;0.0;0.0;0.0
0.05600000000000002;-9979199999.0;-9979200003.0;4.0;0.0;0.00023999999999999998;0.0;0.0;0.0;0.0
0.060000000000000026;-9979199999.0;-9979200003.0;4.0;0.0;0.00023999999999999998;0.0;0.0;0.0;0.0
0.06400000000000003;-9979199999.0;-9979200003.0;4.0;0.0;0.00023999999999999998;0.0;0.0;0.0;0.0
0.06800000000000003;-9979198269.0;-9979200003.0;4.0;0.4324724038416795;0.00023999999999999998;0.0;108.11810096041988;0.0;108.11810096041988
0.07200000000000004;-9979074598.0;-9979200003.0;1734.0;30.917673548951214;0.00023999999999999998;0.5362724038416795;7621.300286277384;0.0;7621.300286277384
0.07600000000000004;-9978706046.0;-9979197857.0;123259.0;92.13805814252598;0.5365124038416795;37.776701145109534;15305.096148393692;0.0;15305.096148393692
0.08000000000000004;-9977864874.0;-9979044605.0;338559.0;210.29283026234364;38.31321354895121;74.13838459357477;29538.693029954415;83.33333333333333;29455.359696621083
0.08400000000000005;-9976396335.0;-9978594799.0;729925.0;367.13475936908867;112.45159814252598;141.63673211981768;39210.482276686256;333.3333333333333;38877.14894335292
0.08800000000000005;-9974036184.0;-9977578446.0;1182111.0;590.037857171701;254.08833026234365;183.973089106745;55725.774450653094;1000.0;54725.774450653094
0.09200000000000005;-9970427077.0;-9975826201.0;1790017.0;902.276614944551;438.06141936908864;259.3774578026124;78059.68944321251;2083.3333333333335;75976.35610987917
0.09600000000000006;-9965150755.0;-9973036446.0;2609369.0;1319.0805442897467;697.438877171701;361.39987777285;104200.98233629893;3666.6666666666665;100534.31566963225
0.10000000000000006;-9957736420.0;-9968801091.0;3650336.0;1853.5835641847207;1058.838754944551;479.2619493451957;133625.7549737435;5750.0;127875.75497374349
0.10400000000000006;-9947733019.0;-9962648689.0;4912269.0;2500.850047890252;1538.1007042897468;610.2189998949739;161816.62092638284;8583.333333333334;153233.2875930495
0.10800000000000007;-9934748582.0;-9954055411.0;6322392.0;3246.109164968492;2148.3197041847206;731.8738637055312;186314.77926956007;12333.333333333334;173981.44593622672
0.11200000000000007;-9918420186.0;-9942534637.0;7786055.0;4082.098793102386;2880.193567890252;833.0788970782405;208997.40703347346;17083.333333333332;191914.0737001401
0.11600000000000008;-9898416881.0;-9927681548.0;9261362.0;5000.826075110184;3713.2724649684924;924.5080481338937;229681.82050194958;22750.0;206931.82050194958
0.12000000000000008;-9874486829.0;-9909130426.0;10713545.0;5982.512798309021;4637.780513102386;1005.8582620077987;245421.68079970905;29250.0;216171.68079970905
0.12400000000000008;-9846446477.0;-9886555871.0;12069042.0;7010.087581396431;5643.638775110185;1063.0165431988362;256893.69577185265;36416.666666666664;220477.029105186
0.12800000000000009;-9814155838.0;-9859729250.0;13282773.0;8072.6594544943555;6706.655318309021;1100.3986430874102;265642.96827448107;44250.0;221392.96827448107
0.1320000000000001;-9777521573.0;-9828501035.0;14345197.0;9158.565810122906;7807.053961396431;1126.317313097924;271476.5889071375;52500.0;218976.5889071375
0.1360000000000001;-9736497505.0;-9792767550.0;15245977.0;10256.016307631115;8933.371274494355;1139.953155628551;274362.6243770523;61083.333333333336;213279.29104371893
0.1400000000000001;-9691099606.0;-9752474253.0;15976748.0;11349.47438816148;10073.324430122906;1141.2967575082075;273364.52013259125;69833.33333333333;203531.1867992579
0.1440000000000001;-9641417149.0;-9707615769.0;16516163.0;12420.613458028585;11214.621187631114;1125.8229805303654;267784.7674667764;78666.66666666667;189118.10080010977
0.1480000000000001;-9587574413.0;-9658253993.0;16836844.0;13460.683561234666;12340.444168161479;1090.3799298671056;260017.52580152015;87583.33333333333;172434.1924681868
0.1520000000000001;-9529721278.0;-9604530697.0;16956284.0;14463.28289476068;13430.824098028585;1047.2365032060807;250649.8333815034;96333.33333333333;154316.5000481701
0.1560000000000001;-9468066052.0;-9546618455.0;16897177.0;15413.80584515349;14478.060601234665;999.0529135260149;237630.7375982028;104833.33333333333;132797.4042648695
0.16000000000000011;-9402867733.0;-9484710001.0;16643949.0;16299.578870012816;15477.11351476068;935.3292703928091;221443.25621483132;113000.0;108443.25621483132
0.16400000000000012;-9334421660.0;-9419060230.0;16192497.0;17111.517643733005;16412.44278515349;858.6859048593251;202984.69343004716;120750.0;82234.69343004718
0.16800000000000012;-9263065665.0;-9349975716.0;15554056.0;17838.99790078574;17271.128690012814;773.6323137201907;181870.06426318386;128000.0;53870.06426318385
0.17200000000000013;-9189175983.0;-9277796672.0;14731007.0;18472.419583198574;18044.761003733005;678.0973170527359;158355.4206032086;134666.66666666666;23688.75393654193
0.17600000000000013;-9113135028.0;-9202905239.0;13729256.0;19010.23772850364;18722.85832078574;573.3166224128327;134454.53632626595;140666.66666666666;-6212.130340400705
0.18000000000000013;-9035300312.0;-9125720540.0;12585512.0;19458.678149949523;19296.174943198574;469.1935053050656;112110.10536147114;146000.0;-33889.89463852886
0.18400000000000014;-8956017006.0;-9046659067.0;11358755.0;19820.825668403282;19765.36844850364;374.8350014458847;90536.87961343984;150500.0;-59963.12038656015
0.18800000000000014;-8875609086.0;-8966098254.0;10081248.0;20101.97893865375;20140.203449949524;285.49709845375764;70288.3175626166;154166.66666666666;-83878.34910405005
0.19200000000000014;-8794335603.0;-8884395452.0;8786366.0;20318.369773878294;20425.70054840328;203.46035025046876;54097.708806136325;157166.66666666666;-103068.95786053032
0.19600000000000015;-8712436269.0;-8801878809.0;7543206.0;20474.8325370479;20629.16089865375;141.80123522454232;39115.69079240144;159333.33333333334;-120217.6425409319
0.20000000000000015;-8630074766.0;-8718794961.0;6358692.0;20590.37469348992;20770.962133878293;85.39192316960543;28885.539110505306;161000.0;-132114.4608894947
0.20400000000000015;-8547403438.0;-8635369545.0;5294779.0;20667.8310457554;20856.354057047898;51.707376442023815;19364.08806636973;162083.33333333334;-142719.2452669636
0.20800000000000016;-8464529586.0;-8551737300.0;4333862.0;20718.46195294501;20908.061433489922;19.801332265476958;12657.726797402574;162750.0;-150092.27320259743
0.21200000000000016;-8381527097.0;-8468025849.0;3496263.0;20750.621268220402;20927.8627657554;0.3749671896111977;8039.8288188480365;162916.66666666666;-154876.83784781862
0.21600000000000016;-8298439615.0;-8384312899.0;2785802.0;20771.869694523208;20928.23773294501;-10.46834472460614;5312.106575701364;162416.66666666666;-157104.5600909653
0.22000000000000017;-8215294841.0;-8300641822.0;2202207.0;20786.192412255594;20917.769388220404;-13.767273697194469;3580.6794330965204;161416.66666666666;-157835.98723357014
0.22400000000000017;-8132119778.0;-8217025814.0;1730973.0;20793.76471666467;20904.00211452321;-13.95132226761416;1893.0761022693332;159750.0;-157856.92389773065
0.22800000000000017;-8048944760.0;-8133465611.0;1345833.0;20793.753654086187;20890.050792255595;-15.536095590923651;-2.765644620922103;157583.33333333334;-157586.09897795427
0.23200000000000018;-7965797641.0;-8049967553.0;1022793.0;20786.778586597582;20874.51469666467;-19.393462578485924;-1743.7668721513546;154583.33333333334;-156327.1002054847
0.23600000000000018;-7882717503.0;-7966547069.0;749428.0;20770.03353093381;20855.121234086186;-23.37696748860253;-4186.263915942618;150750.0;-154936.26391594263
0.24000000000000019;-7799776047.0;-7883220092.0;502589.0;20735.363117686196;20831.744266597583;-31.55539566377047;-8667.603311903804;145833.33333333334;-154500.93664523715
0.2440000000000002;-7717064831.0;-7800019337.0;243290.0;20677.80295309335;20800.188870933813;-50.22835324761763;-14390.041148211822;140000.0;-154390.0411482118
0.2480000000000002;-7634686388.0;-7717019495.0;-45336.0;20594.609922858843;20749.960517686195;-74.87772459284679;-20798.257558626574;133166.66666666666;-153964.92422529322
0.25200000000000017;-7552767379.0;-7634319164.0;-367224.0;20479.751213866344;20675.08279309335;-102.50631023450478;-28714.677248124644;125583.33333333333;-154298.010581458
0.25600000000000017;-7471462185.0;-7552028859.0;-738520.0;20326.2975253869;20572.576482858844;-137.13646899249943;-38363.42211986084;117166.66666666667;-155530.0887865275
0.2600000000000002;-7390945801.0;-7470287099.0;-1175086.0;20129.094995640244;20435.440013866344;-179.6476484794439;-49300.63243666427;108166.66666666667;-157467.29910333094
0.2640000000000002;-7311406282.0;-7389263930.0;-1681871.0;19884.878920556865;20255.7923653869;-227.60962974665745;-61054.01877084478;98500.0;-159554.0187708448
0.2680000000000002;-7233040634.0;-7309151200.0;-2255082.0;19591.411023457305;20028.182735640243;-278.6087350833768;-73366.9742748898;88333.33333333333;-161700.3076082231
0.2720000000000002;-7156036821.0;-7230152904.0;-2887730.0;19250.952155811745;19749.574000556866;-331.42677709956115;-85114.71691139013;77666.66666666667;-162781.38357805682
0.2760000000000002;-7080554290.0;-7152480316.0;-3556505.0;18870.631931338943;19418.147223457305;-380.585367645559;-95080.05611820045;66583.33333333333;-161663.3894515338
0.2800000000000002;-7006735004.0;-7076330069.0;-4224221.0;18454.820545676237;19037.561855811746;-420.3831844728011;-103952.8464156765;55250.0;-159202.8464156765
0.2840000000000002;-6934713325.0;-7001861355.0;-4873649.0;18005.418999141853;18617.178671338945;-454.7770656627072;-112350.38663359592;43750.0;-156100.38663359592
0.2880000000000002;-6864607283.0;-6929211749.0;-5501576.0;17526.50956823637;18162.401605676238;-487.07716653438547;-119727.35772637042;32333.333333333332;-152060.69105970376
0.2920000000000002;-6796513758.0;-6858510452.0;-6096831.0;17023.380516253943;17675.324439141852;-514.6247309054816;-125782.26299560719;21083.333333333332;-146865.59632894053
0.2960000000000002;-6730511775.0;-6789867654.0;-6646104.0;16500.49504102222;17160.69970823637;-536.0854319824284;-130721.36880793096;10000.0;-140721.36880793096
0.3000000000000002;-6666668983.0;-6723369197.0;-7142578.0;15960.69729739226;16624.614276253942;-552.6739152317223;-134949.4359074897;-666.6666666666666;-134282.76924082305
0.3040000000000002;-6605047320.0;-6659081436.0;-7587547.0;15405.41492780093;16071.94036102222;-566.4958836299593;-138820.59239783257;-10916.666666666666;-127903.9257311659
0.3080000000000002;-6545706976.0;-6597059659.0;-7987661.0;14835.085267090522;15505.44447739226;-579.2892095913303;-142582.41517760188;-20416.666666666668;-122165.74851093523
0.3120000000000002;-6488708932.0;-6537355038.0;-8351938.0;14249.510449419726;14926.15526780093;-592.186280710408;-146393.70441769916;-29416.666666666668;-116977.03775103249
0.3160000000000002;-6434116036.0;-6480019163.0;-8689769.0;13648.22320926889;14333.968987090522;-605.844677670797;-150321.81003770893;-37583.333333333336;-112738.47670437559
0.32000000000000023;-6381990898.0;-6425106666.0;-9009370.0;13031.283806236961;13728.124309419725;-620.4633001508355;-154234.85075798226;-45166.666666666664;-109068.18409131559
0.32400000000000023;-6332393030.0;-6372676022.0;-9314876.0;12399.466512425248;13107.66100926889;-635.269763031929;-157954.32345292828;-52083.333333333336;-105870.99011959496
0.32800000000000024;-6285379975.0;-6322786458.0;-9606572.0;11753.263298179187;12472.39124623696;-649.3190538117124;-161550.8035615153;-58666.666666666664;-102884.13689484863
0.33200000000000024;-6241006945.0;-6275494170.0;-9885805.0;11093.256970992375;11823.072192425248;-662.9571942460625;-165001.58179670278;-64750.0;-100251.5817967028
0.33600000000000024;-6199323985.0;-6230853711.0;-10153234.0;10420.739339821675;11160.114998179186;-676.0520671868107;-168129.40779267502;-70583.33333333333;-97546.07445934167
0.34000000000000025;-6160376601.0;-6188917460.0;-10406525.0;9736.84568109142;10484.062930992375;-687.7150911706995;-170973.414682564;-76083.33333333333;-94890.08134923066
0.34400000000000025;-6124206162.0;-6149732069.0;-10644532.0;9042.60921845745;9796.347839821676;-698.174078730257;-173559.11565849237;-81583.33333333333;-91975.78232515905
0.34800000000000025;-6090848767.0;-6113339374.0;-10866788.0;8339.348327112595;9098.173761091419;-707.5718226339686;-175815.2228362137;-86916.66666666667;-88898.55616954704
0.35200000000000026;-6060336517.0;-6079776967.0;-11071800.0;7628.0621050035425;8390.60193845745;-715.561611344855;-177821.55552726318;-92333.33333333333;-85488.22219392985
0.35600000000000026;-6032694294.0;-6049076806.0;-11259711.0;6910.555593930258;7675.040327112595;-722.5608821090527;-179376.62776832122;-97750.0;-81626.62776832121
0.36000000000000026;-6007934898.0;-6021266889.0;-11427405.0;6189.8486338409275;6952.479445003542;-727.5681510732848;-180176.74002233252;-103250.0;-76926.74002233252
0.36400000000000027;-5986063907.0;-5996367244.0;-11567654.0;5467.747489922219;6224.911293930258;-729.1219000893298;-180525.28597967717;-108750.0;-71775.28597967717
0.36800000000000027;-5967054569.0;-5974384087.0;-11679820.0;4752.334267145437;5495.789393840928;-728.8311039187092;-178853.30569419556;-114333.33333333333;-64519.972360862244
0.3720000000000003;-5950814340.0;-5955316254.0;-11738315.0;4060.057185187286;4766.958289922219;-718.9229227767819;-173069.27048953765;-119833.33333333333;-53235.937156204316
0.3760000000000003;-5937211082.0;-5939124113.0;-11690227.0;3400.8143351668537;4048.035367145437;-689.3918019581506;-164810.7125051081;-125250.0;-39560.71250510809
0.3800000000000003;-5926091249.0;-5925689539.0;-11521543.0;2779.95808083495;3358.643565187286;-649.1218100204323;-155214.06358297588;-130333.33333333333;-24880.730249642555
0.3840000000000003;-5917258498.0;-5914851452.0;-11239797.0;2208.187618432227;2709.521755166854;-603.9514943319036;-142942.61560068082;-135083.33333333334;-7859.282267347481
0.3880000000000003;-5910468925.0;-5906429171.0;-10829327.0;1697.3930411928343;2105.57026083495;-547.1422624027232;-127698.64430984814;-139333.33333333334;11634.689023485209
0.3920000000000003;-5905447814.0;-5900195460.0;-10273465.0;1255.2778176375377;1558.427998432227;-477.44285723939265;-110528.80588882414;-142916.66666666666;32387.860777842518
0.3960000000000003;-5901902192.0;-5895871520.0;-9576294.0;886.4053320742534;1080.9851411928344;-400.2849635552966;-92218.12139082109;-145750.0;53531.8786091789
0.4000000000000003;-5899518862.0;-5893148720.0;-8753472.0;595.8324876317143;680.7001776375378;-319.50316556328437;-72643.21111063476;-147666.66666666666;75023.4555560319
0.4040000000000003;-5898022873.0;-5891703932.0;-7814930.0;373.99718023859526;361.1970120742534;-234.260324442539;-55458.82684827977;-148666.66666666666;93207.83981838688
0.4080000000000003;-5897243082.0;-5891196186.0;-6826687.0;194.9479214989856;126.93668763171439;-162.54072739311908;-44762.31468490241;-148583.33333333334;103821.01864843092
0.4120000000000003;-5896904135.0;-5891338602.0;-5904480.0;84.73665202738489;-35.60403976140469;-123.71683873960964;-27552.817367900177;-147500.0;119947.18263209982
0.4160000000000003;-5896774671.0;-5891975885.0;-4928250.0;32.36590183547231;-159.32087850101433;-51.63746947160078;-13092.687547978147;-145500.0;132407.31245202184
0.4200000000000003;-5896755905.0;-5892819718.0;-3954953.0;4.691728294033549;-210.95834797261512;6.027069808087447;-6918.54338535969;-142833.33333333334;135914.78994797365
0.4240000000000003;-5896795362.0;-5893639443.0;-3116462.0;-9.864242985615492;-204.93127816452767;22.63528645856121;-3638.9928199122605;-139500.0;135861.00718008773
0.4280000000000003;-5896811933.0;-5894368626.0;-2426736.0;-4.142800976556042;-182.29599170596646;26.827588720350974;1430.3605022648626;-135583.33333333334;137013.6938355982
0.43200000000000033;-5896812960.0;-5894990499.0;-1821434.0;-0.25688892989480216;-155.46840298561548;42.03956200905945;971.4780116653099;-131250.0;132221.4780116653
0.43600000000000033;-5896807666.0;-5895444214.0;-1368746.0;1.3236733585636447;-113.42884097655603;31.047192046661237;395.1405721146117;-126666.66666666667;127061.80723878129
0.44000000000000034;-5896802169.0;-5895773740.0;-1033926.0;1.374179275970555;-82.3816489298948;21.669762288458443;12.62647935172756;-122000.0;122012.62647935173
0.44400000000000034;-5896798911.0;-5896016587.0;-785582.0;0.8145246858865551;-60.71188664143635;14.951145917406912;-139.91364752099994;-117250.0;117110.086352479
0.44800000000000034;-5896797922.0;-5896199629.0;-599282.0;0.24729364320152683;-45.76074072402944;10.618345409915996;-141.80776067125709;-112416.66666666667;112274.85890599541
0.45200000000000035;-5896798281.0;-5896340198.0;-457724.0;-0.0898152601277142;-35.14239531411344;7.9262489573149715;-84.27722583231025;-107583.33333333333;107499.05610750102
0.45600000000000035;-5896799066.0;-5896449062.0;-349219.0;-0.19626228365945783;-27.216146356798472;6.1731910966707595;-26.61175588293591;-102666.66666666667;102640.05491078373
0.46000000000000035;-5896799722.0;-5896533233.0;-265833.0;-0.16397394815937408;-21.042955260127712;4.896712976468255;8.072083875020938;-97666.66666666667;97674.7387505417
0.46400000000000036;-5896800057.0;-5896597817.0;-201905.0;-0.08384140433653478;-16.146242283659458;3.867968335500086;20.033135955709824;-92500.0;92520.03313595572
0.46800000000000036;-5896800100.0;-5896646930.0;-153127.0;-0.010643734244078405;-12.278273948159372;3.0068125438228375;18.299417523114094;-87250.0;87268.29941752311
0.47200000000000036;-5896799961.0;-5896684015.0;-116085.0;0.034607940705985725;-9.271461404336534;2.295717670092456;11.312918737516032;-82000.0;82011.31291873752
0.47600000000000037;-5896799760.0;-5896711917.0;-88044.0;0.05025656150782289;-6.9757437342440785;1.727711674950064;3.912155200459292;-76583.33333333333;76587.2454885338
0.48000000000000037;-5896865343.0;-5896732909.0;-66851.0;-16.395744253696122;-5.248032059294014;1.2872286208018378;-4111.500203800986;-71083.33333333333;66971.83312953234
0.4840000000000004;-5896885210.0;-5896748752.0;-116591.0;-4.966739512645493;-3.9608034384921766;-19.430400815203946;2857.2511852626576;-65500.0;68357.25118526266
0.4880000000000004;-5896909257.0;-5896842316.0;-42894.0;-6.011625602969295;-23.391204253696124;15.850824741050632;-261.22152258095065;-60000.0;59738.77847741905
0.4920000000000004;-5896937961.0;-5896872477.0;-36780.0;-7.176104585754369;-7.540379512645492;-0.6780460903238037;-291.1197456962684;-54416.666666666664;54125.546920970395
0.4960000000000004;-5896971852.0;-5896905350.0;-32611.0;-8.472682779206599;-8.218425602969296;-0.9143389827850736;-324.14454836305737;-48750.0;48425.85545163694
0.5000000000000003;-5897011651.0;-5896941881.0;-29971.0;-9.94984942116814;-9.13276458575437;-1.1381781934522284;-369.29166049038554;-43000.0;42630.70833950961
