Zeit[sec];Sollposition[°];Istposition[°];Positionsschleppfehler[°];Sollgeschwindigkeit[°/s];Istgeschwindigkeit[°/s];Geschwindigkeitsdifferenz[°/s];Sollbeschleunigung[°/s*s];Istbeschleunigung[°/s*s];Beschleunigungsdifferenz[°/s*s]
0.0;-9979199999.0;-9979199995.0;-4.0;0.0;-0.00023999999999999998;0.0;0.0;0.0;0.0
0.004;-9979199999.0;-9979199995.0;-4.0;0.0;-0.00023999999999999998;0.0;0.0;0.0;0.0
0.008;-9979199999.0;-9979199995.0;-4.0;0.0;-0.00023999999999999998;0.0;0.0;0.0;0.0
0.012;-9979199999.0;-9979199995.0;-4.0;0.0;-0.00023999999999999998;0.0;0.0;0.0;0.0
0.016;-9979199999.0;-9979199995.0;-4.0;0.0;-0.00023999999999999998;0.0;0.0;0.0;0.0
0.02;-9979199999.0;-9979199995.0;-4.0;0.0;-0.00023999999999999998;0.0;0.0;0.0;0.0
0.024;-9979199999.0;-9979199995.0;-4.0;0.0;-0.00023999999999999998;0.0;0.0;0.0;0.0
0.028;-9979199999.0;-9979199995.0;-4.0;0.0;-0.00023999999999999998;0.0;0.0;0.0;0.0
0.032;-9979199999.0;-9979199995.0;-4.0;0.0;-0.00023999999999999998;0.0;0.0;0.0;0.0
0.036000000000000004;-9979199999.0;-9979199995.0;-4.0;0.0;-0.00023999999999999998;0.0;0.0;0.0;0.0
0.04000000000000001;-9979199999.0;-9979199995.0;-4.0;0.0;-0.00023999999999999998;0.0;0.0;0.0;0.0
0.04400000000000001;-9979199999.0;-9979199995.0;-4.0;0.0;-0.00023999999999999998;0.0;0.0;0.0;0.0
0.048000000000000015;-9979199999.0;-9979199995.0;-4.0;0.0;-0.00023999999999999998;0.0;0.0;0.0;0.0
0.05200000000000002;-9979199999.0;-9979199995.0;-4.0;0.0;-0.00023999999999999998;0.0;0.0;0.0;0.0
0.05600000000000002;-9979199999.0;-9979199995.0;-4.0;0.0;-0.00023999999999999998;0.0;0.0;0.0;0.0
0.060000000000000026;-9979196552.0;-9979199995.0;-4.0;0.8617340094645075;-0.00023999999999999998;0.0;215.43350236612687;0.0;215.43350236612687
0.06400000000000003;-9978950321.0;-9979199995.0;3443.0;61.55756055761796;-0.00023999999999999998;1.0685540094645074;15173.956637038364;0.0;15173.956637038364
0.06800000000000003;-9978229926.0;-9979195722.0;245401.0;180.09893098968033;1.0683140094645074;75.21330654815345;29635.34260801559;0.0;29635.34260801559
0.07200000000000004;-9976676668.0;-9978890596.0;660670.0;388.3143117437418;76.28162055761796;143.45751043206235;52053.84518851538;166.66666666666666;51887.178521848706
0.07600000000000004;-9973864432.0;-9978011640.0;1334972.0;703.0590415949644;219.73913098968032;248.6735007540615;78686.18246280563;750.0;77936.18246280563
0.08000000000000004;-9969192182.0;-9976137990.0;2273558.0;1168.0625127380308;468.4126317437418;371.05988985122247;116250.86778576662;1916.6666666666667;114334.20111909995
0.08400000000000005;-9962031639.0;-9972780100.0;3587918.0;1790.1356463182926;839.4725215949643;543.8650711430664;155518.28339506546;4000.0;151518.28339506546
0.08800000000000005;-9951597998.0;-9967246750.0;5215111.0;2608.4101591670137;1383.3375927380307;719.7047135802618;204568.62821218028;7000.0;197568.62821218028
0.09200000000000005;-9936996623.0;-9958834581.0;7236583.0;3650.343464665825;2103.0423063182925;939.562832848721;260483.32637470288;11333.333333333334;249149.99304136954
0.09600000000000006;-9917412416.0;-9946664161.0;9667538.0;4896.051475813588;3042.6051391670135;1187.7906054988116;311427.00278694066;17000.0;294427.00278694066
0.10000000000000006;-9892234096.0;-9929742579.0;12330163.0;6294.579682080431;4230.395744665825;1405.4655111477623;349632.05156671075;24416.666666666668;325215.38490004407
0.10400000000000006;-9860963789.0;-9907199134.0;14965038.0;7817.576482953458;5635.861255813587;1556.6207062668436;380749.20021825685;33583.333333333336;347165.86688492354
0.10800000000000007;-9823235042.0;-9878429207.0;17465418.0;9432.186244098608;7192.481962080431;1673.0196008730263;403652.4402862874;44416.666666666664;359235.7736196207
0.11200000000000007;-9778969745.0;-9842967201.0;19732159.0;11066.323829846424;8865.501562953457;1750.6142211451497;408534.39643695403;56500.0;352034.39643695403
0.11600000000000008;-9728326556.0;-9800502738.0;21532993.0;12660.796549182425;10616.115784098607;1742.1876257478161;398618.1798340003;69500.0;329118.1798340003
0.12000000000000008;-9671616930.0;-9751069525.0;22742969.0;14177.405782829928;12358.303409846423;1667.0712793360017;379152.30841187574;82916.66666666667;296235.6417452091
0.12400000000000008;-9609327827.0;-9694968027.0;23351097.0;15572.275160536461;14025.374689182425;1553.0969136475032;348717.3444266332;96333.33333333333;252384.01109329987
0.12800000000000009;-9542116174.0;-9632654141.0;23326314.0;16802.912323993725;15578.471602829928;1393.3823977065313;307659.29086431605;109250.0;198409.29086431605
0.1320000000000001;-9470726500.0;-9564766725.0;22650551.0;17847.41764686185;16971.85400053646;1190.0913834572675;261126.33071703112;121250.0;139876.33071703112
0.1360000000000001;-9395901316.0;-9492118944.0;21392444.0;18706.295218008;18161.945383993727;969.0189028681234;214719.39278653736;132083.33333333334;82636.05945320401
0.1400000000000001;-9318376715.0;-9415595087.0;19693771.0;19381.14919629783;19130.96428686185;756.9571911461499;168713.49457245742;141333.33333333334;27380.161239124078
0.1440000000000001;-9238841861.0;-9336043402.0;17666687.0;19883.712695226397;19887.921478008;553.228938289827;125640.87473214204;148916.66666666666;-23275.79193452462
0.1480000000000001;-9157856327.0;-9254278801.0;15436940.0;20246.382385532288;20441.150416297827;368.778678928571;90667.42257647275;154833.33333333334;-64165.9107568606
0.1520000000000001;-9075874173.0;-9171039085.0;13182758.0;20495.53764806401;20809.9290952264;227.41877030588876;62288.81563293089;159166.66666666666;-96877.85103373576
0.1560000000000001;-8993268704.0;-9086889694.0;11015521.0;20651.366162753355;21037.347865532287;119.12104253172583;38957.128672335784;162250.0;-123292.87132766421
0.16000000000000011;-8910305016.0;-9002263819.0;8995115.0;20740.921054170576;21156.468908064013;34.60415468934298;22388.722854305342;164083.33333333334;-141694.610479028
0.16400000000000012;-8827155675.0;-8917499527.0;7194511.0;20787.334281237418;21191.073062753356;-18.4813485827799;11603.306766710375;165083.33333333334;-153480.02656662295
0.16800000000000012;-8743932300.0;-8832809161.0;5653486.0;20805.8428395229;21172.591714170576;-46.04827293315975;4627.139571370208;165416.66666666666;-160789.52709529645
0.17200000000000013;-8660698390.0;-8748302988.0;4370688.0;20808.476391450327;21126.543441237416;-58.45932171451932;658.3879818572314;165333.33333333334;-164674.9453514761
0.17600000000000013;-8577480866.0;-8664030652.0;3332262.0;20804.379972472932;21068.084119522897;-59.67200807256813;-1024.1047443487332;165000.0;-166024.10474434873
0.18000000000000013;-8494283836.0;-8579997004.0;2516138.0;20799.256552239152;21008.41211145033;-53.063858977395284;-1280.8550584450131;164583.33333333334;-165864.18839177836
0.18400000000000014;-8411101048.0;-8496175611.0;1891775.0;20795.696090045043;20955.348252472933;-42.58520023378151;-890.1155485273193;164166.66666666666;-165056.78221519396
0.18800000000000014;-8327924313.0;-8412524559.0;1423511.0;20794.182753118326;20912.763052239152;-31.65630219410741;-378.33423167921865;163750.0;-164128.3342316792
0.19200000000000014;-8244747534.0;-8329000132.0;1075819.0;20794.19378350355;20881.106750045044;-22.374856926719076;2.757596305855259;163416.66666666666;-163413.9090703608
0.19600000000000015;-8161567551.0;-8245565205.0;817671.0;20794.994819864318;20858.731893118325;-15.47784961477737;200.25909019204846;163083.33333333334;-162883.07424314128
0.20000000000000015;-8078383406.0;-8162192189.0;624638.0;20796.03523918116;20843.254043503548;-10.780943639230827;260.10482921083167;162750.0;-162489.89517078915
0.20400000000000015;-7995195249.0;-8078862297.0;478891.0;20797.038231986957;20832.473099864317;-7.704400683156564;250.7482014489142;162083.33333333334;-161832.58513188444
0.20800000000000016;-7912003506.0;-7995563223.0;367974.0;20797.93467354918;20824.76869918116;-5.652027194202674;224.11039055623405;160833.33333333334;-160609.2229427771
0.21200000000000016;-7828808465.0;-7912286757.0;283251.0;20798.759253100623;20819.116671986958;-4.1869384377750976;206.1448878603187;158750.0;-158543.8551121397
0.21600000000000016;-7745610178.0;-7829027039.0;218574.0;20799.57080136839;20814.929733549183;-3.056040448558633;202.88706694191205;155583.33333333334;-155380.44626639143
0.22000000000000017;-7662408524.0;-7745779545.0;169367.0;20800.41244932606;20811.873693100624;-2.1408717322337907;210.41198941748007;151333.33333333334;-151122.92134391586
0.22400000000000017;-7579203310.0;-7662540614.0;132090.0;20801.302641881703;20809.73282136839;-1.394972042329755;222.54813891049707;145583.33333333334;-145360.78519442285
0.22800000000000017;-7495995959.0;-7579307263.0;103953.0;20801.836656143354;20808.33784932606;-0.7980274443580129;133.503565412866;138166.66666666666;-138033.1631012538
0.23200000000000018;-7412791191.0;-7496077104.0;81145.0;20801.191045049272;20807.539821881703;-0.834465738349536;-161.40277352042176;128916.66666666667;-129078.0694401871
0.23600000000000018;-7329595372.0;-7412850283.0;59092.0;20798.953774324098;20806.705356143353;-1.968791094081098;-559.3176812935781;118166.66666666667;-118725.98434796024
0.24000000000000019;-7246434798.0;-7329631337.0;35965.0;20790.14240097486;20804.736565049272;-3.6248907251756464;-2202.843337309787;106083.33333333333;-108286.17667064312
0.2440000000000002;-7163376602.0;-7246426891.0;-7907.0;20764.54812752065;20801.111674324096;-11.443693349236128;-6398.568363551931;93083.33333333333;-99481.90169688527
0.2480000000000002;-7080509735.0;-7163268220.0;-108382.0;20716.715690546964;20789.66798097486;-31.622773454208073;-11958.109243421859;79583.33333333333;-91541.44257675519
0.25200000000000017;-6997958367.0;-7080236040.0;-273695.0;20637.841229375117;20758.045207520652;-57.751216973687406;-19718.61529296166;66000.0;-85718.61529296165
0.25600000000000017;-6915923478.0;-6997434865.0;-523502.0;20508.721115409742;20700.293990546965;-93.86288117184813;-32280.028491343728;52833.333333333336;-85113.36182467706
0.2600000000000002;-6834663011.0;-6915009141.0;-914337.0;20315.11581372438;20606.431109375117;-152.5702139653731;-48401.325421340516;40333.333333333336;-88734.65875467384
0.2640000000000002;-6754479945.0;-6833193698.0;-1469313.0;20045.7655245876;20453.860895409744;-226.90386168536497;-67337.57228419473;28750.0;-96087.57228419473
0.2680000000000002;-6675745812.0;-6752285870.0;-2194075.0;19683.532412939097;20226.95703372438;-312.83600913677583;-90558.27791212595;18333.333333333332;-108891.6112454593
0.2720000000000002;-6598893731.0;-6672629386.0;-3116426.0;19213.019290481665;19914.121024587603;-417.5741716485063;-117628.28061435811;8833.333333333334;-126461.61394769145
0.2760000000000002;-6524382266.0;-6594643199.0;-4250532.0;18627.8652708038;19496.546852939096;-538.5594824574328;-146288.5049194665;500.0;-146788.5049194665
0.2800000000000002;-6452670030.0;-6518811250.0;-5571016.0;17928.05822227742;18957.987370481664;-664.3830596778644;-174951.76213159447;-7250.0;-167701.76213159447
0.2840000000000002;-6384224922.0;-6445636833.0;-7033197.0;17111.276224988236;18293.6043108038;-787.5379085263776;-204195.4993222962;-14416.666666666666;-189778.83265562952
0.2880000000000002;-6319506586.0;-6375612568.0;-8612354.0;16179.583093636644;17506.06640227742;-911.5314172891849;-232923.28283789812;-21500.0;-211423.28283789812
0.2920000000000002;-6258924077.0;-6309234429.0;-10272157.0;15145.62666518172;16594.534984988237;-1031.281311351593;-258489.10711373083;-28583.333333333332;-229905.7737803975
0.2960000000000002;-6202841085.0;-6246981415.0;-11942662.0;14020.74737820634;15563.253673636644;-1134.1867284549226;-281219.82174384495;-36083.333333333336;-245136.4884105116
0.3000000000000002;-6151567073.0;-6189265148.0;-13575937.0;12818.502198771535;14429.066945181721;-1222.8757869753808;-300561.29485870135;-44000.0;-256561.29485870132
0.3040000000000002;-6105326440.0;-6136440384.0;-15126689.0;11560.157730450108;13206.19115820634;-1295.2902994348042;-314586.11708035687;-52583.333333333336;-262002.78374702352
0.3080000000000002;-6064280005.0;-6088796781.0;-16529659.0;10261.60834681878;11910.900858771536;-1342.5226683214278;-324637.3459078318;-61583.333333333336;-263054.0125744984
0.3120000000000002;-6028493816.0;-6046523269.0;-17756736.0;8946.546804699632;10568.378190450108;-1372.1740036313277;-328765.38552978716;-71250.0;-257515.3855297872
0.3160000000000002;-5997875539.0;-6009738453.0;-18755363.0;7654.5688703307405;9196.20418681878;-1374.979162119149;-322994.48359222285;-81250.0;-241744.48359222288
0.32000000000000023;-5972229176.0;-5978453553.0;-19421986.0;6411.5905514691285;7821.225024699632;-1331.9753143688913;-310744.57971540303;-91583.33333333333;-219161.2463820697
0.32400000000000023;-5951294233.0;-5952496555.0;-19732621.0;5233.735534253683;6489.2497103307405;-1261.6164188616121;-294463.75430386135;-101916.66666666667;-192547.0876371947
0.32800000000000024;-5934707693.0;-5931586022.0;-19708211.0;4146.634773683766;5227.633291469128;-1176.3904172154453;-271775.19014247926;-112083.33333333333;-159691.85680914592
0.33200000000000024;-5922004392.0;-5915381051.0;-19326642.0;3175.824940840961;4051.242874253683;-1064.206620569917;-242702.45821070124;-121750.0;-120952.45821070125
0.33600000000000024;-5912656684.0;-5903432906.0;-18571486.0;2336.9268750545334;2987.036253683766;-925.5004728428048;-209724.51644660693;-130833.33333333333;-78891.18311327358
0.34000000000000025;-5906100775.0;-5895186763.0;-17469921.0;1638.977373600004;2061.5357808409613;-772.8041657864278;-174487.37536363234;-139000.0;-35487.37536363234
0.34400000000000025;-5901732617.0;-5890031837.0;-16068938.0;1092.039358939802;1288.7316150545334;-613.8905214545293;-136734.50366505052;-146166.66666666666;9432.163001616147
0.34800000000000025;-5898982633.0;-5887332473.0;-14400144.0;687.4959709763822;674.8410936000041;-446.810374660202;-101135.84699085496;-152083.33333333334;50947.48634247838
0.35200000000000026;-5897502309.0;-5886420351.0;-12562282.0;370.08108929551946;228.0307189398021;-294.2716679634199;-79353.72042021569;-156916.66666666666;77562.94624645097
0.35600000000000026;-5896908205.0;-5886685314.0;-10816995.0;148.52583770691024;-66.24094902361776;-212.69766168086272;-55388.812897152304;-160416.66666666666;105027.85376951435
0.36000000000000026;-5896703588.0;-5887801068.0;-9107137.0;51.15419784513078;-278.9386107044805;-118.96377158860918;-24342.909965444866;-162916.66666666666;138573.7567012218
0.36400000000000027;-5896717573.0;-5889392677.0;-7310911.0;-3.496199999291129;-397.90238229308966;10.401920138220476;-13662.599461105478;-164416.66666666666;150754.06720556118
0.36800000000000027;-5896722406.0;-5890942678.0;-5774895.0;-1.208241767577678;-387.5004621548692;37.51056215557804;571.9895579283627;-165333.33333333334;165905.32289126172
0.3720000000000003;-5896768491.0;-5892342637.0;-4379769.0;-11.521249842478632;-349.98989999929114;85.99551823171345;-2578.2520187252385;-165500.0;162921.74798127476
0.3760000000000003;-5896825757.0;-5893398614.0;-3369877.0;-14.316468119872438;-263.9943817675777;50.28051192509909;-698.8045693484514;-165166.66666666666;164467.8620973182
0.3800000000000003;-5896814249.0;-5894253469.0;-2572288.0;2.8770713509229013;-213.7138698424786;45.06012172260617;4298.384867698835;-164500.0;168798.38486769883
0.3840000000000003;-5896803335.0;-5894928083.0;-1886166.0;2.728463310144709;-168.65374811987243;58.36085947079535;-37.152010194548055;-163750.0;163712.84798980545
0.3880000000000003;-5896797274.0;-5895369254.0;-1434081.0;1.5151525314774208;-110.29288864907709;26.976491959221804;-303.3276946668221;-162916.66666666666;162613.33897199982
0.3920000000000003;-5896795716.0;-5895702519.0;-1094755.0;0.3894434418196678;-83.31639668985528;19.14624922133271;-281.4272724144383;-161750.0;161468.57272758556
0.3960000000000003;-5896796668.0;-5895959199.0;-836517.0;-0.2379936006399881;-64.17014746852257;14.368570910342243;-156.85926061491398;-160250.0;160093.1407393851
0.4000000000000003;-5896798299.0;-5896158405.0;-638263.0;-0.40755334582692115;-49.80157655818033;11.267802957540347;-42.38993629673327;-158250.0;158207.61006370327
0.4040000000000003;-5896799570.0;-5896312540.0;-485759.0;-0.31783382987676656;-38.53377360063998;8.980680254813063;22.429878987538647;-155750.0;155772.42987898755
0.4080000000000003;-5896800163.0;-5896430752.0;-368818.0;-0.14834877843847813;-29.55309334582692;7.106179515950156;42.371262859572106;-152333.33333333334;152375.70459619293
0.4120000000000003;-5896800167.0;-5896520539.0;-279624.0;-0.0007974210056542746;-22.446913829876763;5.521125051438286;36.887839358205966;-148083.33333333334;148120.22117269156
0.4160000000000003;-5896868194.0;-5896588242.0;-211925.0;-17.00696861099807;-16.925788778438477;4.2094913574328245;-4251.542797498104;-142750.0;138498.4572025019
0.4200000000000003;-5896900132.0;-5896639107.0;-229087.0;-7.984338343674044;-12.716297421005653;-18.035891189992416;2255.657566831006;-136583.33333333334;138838.99090016435
0.4240000000000003;-5896939131.0;-5896762115.0;-138017.0;-9.74969114963202;-30.75218861099807;14.486830267324024;-441.3382014894942;-129416.66666666667;128975.32846517718
0.4280000000000003;-5896989473.0;-5896827176.0;-111955.0;-12.585715966102393;-16.265358343674045;-0.20163280595797772;-709.006204117593;-121500.0;120790.9937958824
0.43200000000000033;-5897055750.0;-5896893043.0;-96430.0;-16.569106034703513;-16.466991149632022;-1.9045248164703708;-995.8475171502798;-112666.66666666667;111670.81914951639
0.43600000000000033;-5897141580.0;-5896966529.0;-89221.0;-21.457538837314186;-18.371515966102393;-3.550850068601118;-1222.1082006526683;-103166.66666666667;101944.558466014
0.44000000000000034;-5897250402.0;-5897054218.0;-87362.0;-27.205374660995588;-21.92236603470351;-4.776892802610675;-1436.9589559203507;-93083.33333333333;91646.37437741298
0.44400000000000034;-5897385361.0;-5897161015.0;-89387.0;-33.73992922115041;-26.699258837314186;-5.8693358236814;-1633.638640038706;-82666.66666666667;81033.02802662796
0.44800000000000034;-5897547719.0;-5897291289.0;-94072.0;-40.589510039115524;-32.568594660995586;-6.815654560154826;-1712.395204491278;-72000.0;70287.60479550873
0.45200000000000035;-5897736961.0;-5897448825.0;-98894.0;-47.31033941192933;-39.38424922115041;-7.138900817965109;-1680.2073432034508;-61416.666666666664;59736.45932346321
0.45600000000000035;-5897951849.0;-5897634917.0;-102044.0;-53.72210620736419;-46.52315003911552;-6.909829372813803;-1602.941698858716;-51166.666666666664;49563.724967807946
0.46000000000000035;-5898190940.0;-5897848648.0;-103201.0;-59.772724380383025;-53.432979411929324;-6.481186795434866;-1512.6545432547082;-41500.0;39987.34545674529
0.46400000000000036;-5898452876.0;-5898088304.0;-102636.0;-65.48409403288673;-59.91416620736419;-6.01671817301883;-1427.8424131259264;-32416.666666666668;30988.82425354074
0.46800000000000036;-5898736394.0;-5898352027.0;-100849.0;-70.87930374649501;-65.93088438038302;-5.604149652503708;-1348.8024284020703;-24083.333333333332;22734.53090493126
0.47200000000000036;-5899040072.0;-5898638167.0;-98227.0;-75.91952625307415;-71.53503403288673;-5.237889713608283;-1260.0556266447852;-16916.666666666668;15656.611040021882
0.47600000000000037;-5899362240.0;-5898945258.0;-94814.0;-80.54213776068723;-76.77292374649501;-4.835442506579142;-1155.6528769032682;-10916.666666666666;9761.013789763398
0.48000000000000037;-5899700905.0;-5899271691.0;-90549.0;-84.66606514427674;-81.60836625307415;-4.366711507613076;-1030.9818458973793;-6333.333333333333;5302.3514874359535
0.4840000000000004;-5900053560.0;-5899615591.0;-85314.0;-88.16396617461281;-85.97507776068723;-3.8098273835895213;-874.4752575840166;-2833.3333333333335;1958.8580757493169
0.4880000000000004;-5900417309.0;-5899974730.0;-78830.0;-90.93706329650898;-89.78490514427675;-3.108861030336058;-693.2742804740428;-416.6666666666667;-276.60761380737614
0.4920000000000004;-5900788995.0;-5900346305.0;-71004.0;-92.92149332746278;-92.89376617461281;-2.30353712189617;-496.1075077384507;1250.0;-1746.1075077384507
