Zeit[sec];Sollposition[°];Istposition[°];Positionsschleppfehler[°];Sollgeschwindigkeit[°/s];Istgeschwindigkeit[°/s];Geschwindigkeitsdifferenz[°/s];Sollbeschleunigung[°/s*s];Istbeschleunigung[°/s*s];Beschleunigungsdifferenz[°/s*s]
0.0;0.0;5.0;-5.0;-0.0;-0.00021499999999999997;0.0;0.0;0.0;0.0
0.004;0.0;5.0;-5.0;-0.0;-0.00021499999999999997;0.0;0.0;0.0;0.0
0.008;0.0;5.0;-5.0;-0.0;-0.00021499999999999997;0.0;0.0;0.0;0.0
0.012;0.0;5.0;-5.0;-0.0;-0.00021499999999999997;0.0;0.0;0.0;0.0
0.016;0.0;5.0;-5.0;-0.0;-0.00021499999999999997;0.0;0.0;0.0;0.0
0.02;0.0;5.0;-5.0;-0.0;-0.00021499999999999997;0.0;0.0;0.0;0.0
0.024;0.0;5.0;-5.0;-0.0;-0.00021499999999999997;0.0;0.0;0.0;0.0
0.028;0.0;5.0;-5.0;-0.0;-0.00021499999999999997;0.0;0.0;0.0;0.0
0.032;0.0;5.0;-5.0;-0.0;-0.00021499999999999997;0.0;0.0;0.0;0.0
0.036000000000000004;0.0;5.0;-5.0;-0.0;-0.00021499999999999997;0.0;0.0;0.0;0.0
0.04000000000000001;0.0;5.0;-5.0;-0.0;-0.00021499999999999997;0.0;0.0;0.0;0.0
0.04400000000000001;0.0;5.0;-5.0;-0.0;-0.00021499999999999997;0.0;0.0;0.0;0.0
0.048000000000000015;0.0;5.0;-5.0;-0.0;-0.00021499999999999997;0.0;0.0;0.0;0.0
0.05200000000000002;0.0;5.0;-5.0;-0.0;-0.00021499999999999997;0.0;0.0;0.0;0.0
0.05600000000000002;0.0;5.0;-5.0;-0.0;-0.00021499999999999997;0.0;0.0;0.0;0.0
0.060000000000000026;1958.0;5.0;-5.0;0.489737181533517;-0.00021499999999999997;0.0;122.43429538337924;0.0;122.43429538337924
0.06400000000000003;21481.0;5.0;1953.0;4.88056054622535;-0.00021499999999999997;0.573931181533517;1097.7058411729583;0.0;1097.7058411729583
0.06800000000000003;117436.0;2299.0;19182.0;23.988944758112712;0.573716181533517;5.131670364691833;4777.09605297184;0.0;4777.09605297184
0.07200000000000004;434422.0;25120.0;92316.0;79.24631158431858;5.70538654622535;22.253146211887362;13814.341706551466;0.0;13814.341706551466
0.07600000000000004;1237486.0;136954.0;297468.0;200.76596195646448;27.95853275811271;64.07890282620586;30379.912593036475;83.33333333333333;30296.579259703143
0.08000000000000004;2913850.0;505103.0;732383.0;419.09099824164434;92.03743558431857;140.22099537214592;54581.25907129497;250.0;54331.25907129497
0.08400000000000005;5934704.0;1434136.0;1479714.0;755.2135128974852;232.25843095646448;250.46026928517986;84030.62866396022;916.6666666666666;83113.96199729355
0.08800000000000005;10806418.0;3365010.0;2569694.0;1217.9283989234739;482.71870024164434;382.9916546558409;115678.72150649717;2083.3333333333335;113595.38817316384
0.09200000000000005;18045242.0;6827851.0;3978567.0;1809.7060731605964;865.7103548974852;523.2964250259887;147944.41855928063;4166.666666666667;143777.75189261395
0.09600000000000006;28170566.0;12383878.0;5661364.0;2531.330671248804;1389.006779923474;664.1379452371225;180406.14952205186;7083.333333333333;173322.81618871854
0.10000000000000006;41687677.0;20596456.0;7574110.0;3379.277594817807;2053.1447251605964;803.8726760882073;211986.73089225075;11166.666666666666;200820.0642255841
0.10400000000000006;59053328.0;32024525.0;9663152.0;4341.4127428823585;2857.0174012488037;937.775729569003;240533.7870161379;16416.666666666668;224117.12034947125
0.10800000000000007;80644339.0;47203697.0;11849631.0;5397.75247804218;3794.7931308178067;1056.153745064552;264084.93378995534;22666.666666666668;241418.26712328868
0.11200000000000007;106739447.0;66607484.0;14036855.0;6523.776623662974;4850.946875882359;1150.390367159821;281506.0364051985;30000.0;251506.03640519854
0.11600000000000008;137510088.0;90612832.0;16126615.0;7692.6598964180475;6001.33724304218;1215.8838256207946;292220.81818876835;38083.333333333336;254137.48485543503
0.12000000000000008;173024995.0;119481716.0;18028372.0;8878.726429921502;7217.221068662974;1250.658823755074;296516.63337586366;47083.333333333336;249433.30004253032
0.12400000000000008;213273767.0;153353235.0;19671760.0;10062.192356907077;8467.879892418048;1256.7322175034533;295866.48174639366;56500.0;239366.48174639366
0.12800000000000009;258199808.0;192251683.0;21022084.0;11231.50965475559;9724.612109921502;1241.5298589855756;292329.32446212816;66166.66666666667;226162.6577954615
0.1320000000000001;307728965.0;236116250.0;22083558.0;12382.288676535032;10966.141968907077;1214.9606798485129;287694.75544486067;75916.66666666667;211778.088778194
0.1360000000000001;361787243.0;284840660.0;22888305.0;13514.568971224295;12181.10264875559;1185.3831427794412;283070.07367231563;85583.33333333333;197486.74033898232
0.1400000000000001;420308018.0;338306603.0;23480640.0;14630.193020652869;13366.485791535031;1157.7506996892625;278906.01235714345;95166.66666666667;183739.34569047682
0.1440000000000001;483232432.0;396403548.0;23904470.0;15731.102883850635;14524.236491224294;1133.8487394285748;275227.4657994417;104333.33333333333;170894.13246610836
0.1480000000000001;550506925.0;459035888.0;24196544.0;16818.62223296646;15658.085230652869;1113.4690451977658;271879.8372789561;113416.66666666667;158463.1706122894
0.1520000000000001;622080560.0;526122105.0;24384820.0;17893.408011433738;16771.554275850634;1095.6152171158246;268696.44461681944;122250.0;146446.44461681947
0.1560000000000001;697903259.0;597590782.0;24489778.0;18955.67387514236;17867.16949296646;1079.298972467277;265566.46592715604;131000.0;134566.46592715607
0.16000000000000011;777924983.0;673376655.0;24526604.0;20005.430142252466;18946.468465433736;1063.8493817086237;262439.06677752605;139500.0;122939.06677752602
0.16400000000000012;862095576.0;753417926.0;24507057.0;21042.647153923554;20010.31784714236;1048.9157461101058;259304.25291777193;148000.0;111304.25291777193
0.16800000000000012;950364855.0;837654860.0;24440716.0;22067.318609708662;21059.233593252466;1034.3643486710862;256167.86394627707;156333.33333333334;99834.53061294372
0.17200000000000013;1042682637.0;926029251.0;24335604.0;23079.44438043674;22093.597941923552;1020.1516397851083;253031.44268201958;164500.0;88531.44268201958
0.17600000000000013;1138998612.0;1018484249.0;24198388.0;24078.992705213244;23113.74958170866;1006.2254827280813;249887.08119412605;172500.0;77387.08119412605
0.18000000000000013;1239262154.0;1114964149.0;24034463.0;25065.8842067218;24119.97506443674;992.4995497765012;246722.87537713873;180500.0;66222.87537713873
0.18400000000000014;1343422083.0;1215414047.0;23848107.0;26039.981062662362;25112.474614213243;978.8781935085572;243524.2139851407;188416.66666666666;55107.54731847405
0.18800000000000014;1451426402.0;1319779458.0;23642625.0;27001.078611146106;26091.3528077218;965.2611299405617;240274.3871209359;196166.66666666666;44107.72045426924
0.19200000000000014;1563221957.0;1428005913.0;23420489.0;27948.887274288678;27056.61393766236;951.5457004837444;236952.16578564304;203833.33333333334;33118.8324523097
0.19600000000000015;1678753643.0;1540038551.0;23183406.0;28882.920294073407;28008.159638146106;937.6140941425729;233508.2549461822;211333.33333333334;22174.921612848862
0.20000000000000015;1797963139.0;1655821645.0;22931998.0;29802.372502692695;28945.77373228868;923.2224757847289;229863.05215482207;218750.0;11113.052154822071
0.20400000000000015;1920787735.0;1775297629.0;22665510.0;30706.147552304108;29868.996208073408;907.9932246192875;225943.7624028533;226000.0;-56.237597146719054
0.20800000000000016;2047159212.0;1898405586.0;22382149.0;31592.867761637786;30776.989432692695;891.5905266114132;221680.05233341956;233000.0;-11319.947666580447
0.21200000000000016;2177002510.0;2025079905.0;22079307.0;32460.822893185246;31668.57995930411;873.6980033336768;216988.78288686502;239500.0;-22511.21711313499
0.21600000000000016;2310233941.0;2155249016.0;21753494.0;33307.856270906916;32542.277962637785;853.945172547461;211758.34443041732;245250.0;-33491.65556958269
0.22000000000000017;2446756728.0;2288833908.0;21400033.0;34130.69505988401;33396.223135185246;831.8345547216668;205709.69724427414;250083.33333333334;-44373.636089059204
0.22400000000000017;2586453570.0;2425746138.0;21010590.0;34924.20890018977;34228.05768990691;806.0927399771026;198378.4600764393;253750.0;-55371.539923560704
0.22800000000000017;2729179922.0;2565882739.0;20570831.0;35681.58621747519;35034.150429884015;774.6042033057529;189344.32932135498;256166.66666666666;-66822.3373453117
0.23200000000000018;2874757789.0;2709117757.0;20062165.0;36394.46507124901;35808.75463318977;735.5046792854191;178219.71344345546;257166.66666666666;-78946.95322321118
0.23600000000000018;3022968525.0;2855294794.0;19462995.0;37052.68209357943;36544.25931247519;687.1145437738232;164554.25558260502;257000.0;-92445.74441739496
0.24000000000000019;3173550684.0;3004220289.0;18748236.0;37645.538017076906;37231.37385624901;627.4823853304188;148213.98087436863;255416.66666666666;-107202.68579229801
0.2440000000000002;3326209003.0;3155655713.0;17894971.0;38164.57787873767;37858.85624157943;556.1655284974768;129759.96541519089;252583.33333333334;-122823.36791814245
0.2480000000000002;3480630809.0;3309315800.0;16893203.0;38605.44974510566;38415.021770076906;475.9638376607618;110217.96659199754;248500.0;-138282.03340800246
0.25200000000000017;3636502325.0;3464879742.0;15751067.0;38967.87707163175;38890.98560773767;391.7600183679897;90606.83163152316;243416.66666666666;-152809.83503514348
0.25600000000000017;3793522528.0;3622010724.0;14491601.0;39255.04906944889;39282.74562610566;308.2702885260951;71792.99945428465;237416.66666666666;-165623.66721238202
0.2600000000000002;3951414457.0;3780374787.0;13147741.0;39472.980309760205;39591.01591463175;229.38601781713805;54482.81007782862;230750.0;-176267.18992217138
0.2640000000000002;4109932546.0;3939656394.0;11758063.0;39629.520342993615;39820.40193244889;158.17508631131204;39135.00830835255;223500.0;-184364.99169164745
0.2680000000000002;4268869362.0;4099570702.0;10361844.0;39734.202118680565;39978.5770187602;96.50261623341066;26170.443921737387;215833.33333333334;-189662.88941159594
0.2720000000000002;4428064589.0;4259871020.0;8998342.0;39798.80496426586;40075.07963499361;46.05118968695024;16150.711396323459;207833.33333333334;-191682.62193700988
0.2760000000000002;4587407215.0;4420355543.0;7709046.0;39835.65454875396;40121.130824680564;9.163117585296277;9212.396122025893;199500.0;-190287.6038779741
0.2800000000000002;4746819828.0;4580876718.0;6530497.0;39853.151261930354;40130.29394226586;-13.828022511894233;4374.178294097874;191083.33333333334;-186709.15503923548
0.2840000000000002;4906229516.0;4741342581.0;5477247.0;39852.42021719314;40116.465919753966;-27.793036823612056;-182.76118430367205;182500.0;-182682.76118430367
0.2880000000000002;5065540289.0;4901697272.0;4532244.0;39827.691349220324;40088.672882930354;-41.36617373721674;-6182.216993203838;173833.33333333334;-180015.55032653717
0.2920000000000002;5224612767.0;5061886498.0;3653791.0;39768.11745405726;40047.30670919314;-62.50234697281121;-14893.47379076571;165166.66666666666;-180060.14045743237
0.2960000000000002;5383249725.0;5221825715.0;2787052.0;39659.23763433281;39984.804362220326;-96.84367216306418;-27219.954931113534;156500.0;-183719.95493111352
0.3000000000000002;5541191047.0;5381377557.0;1872168.0;39485.32872660535;39887.96069005726;-148.2198317244547;-43477.2269318637;147833.33333333334;-191310.56026519704
0.3040000000000002;5698118309.0;5540336520.0;854527.0;39231.813545065925;39739.74085833281;-217.66747072745784;-63378.79538485686;138916.66666666666;-202295.4620515235
0.3080000000000002;5853662812.0;5698424813.0;-306504.0;38886.12409460709;39522.07338760535;-303.4395145394228;-86422.36261470862;129750.0;-216172.3626147086
0.3120000000000002;6007416590.0;5855299348.0;-1636536.0;38438.44253427517;39218.633873065926;-402.88082645883696;-111920.3900829798;120166.66666666667;-232087.05674964646
0.3160000000000002;6158950317.0;6010562360.0;-3145770.0;37883.42986231246;38815.75304660709;-512.5786223319155;-138753.16799067694;110000.0;-248753.16799067694
0.32000000000000023;6307835287.0;6163775057.0;-4824740.0;37221.24073937656;38303.174424275174;-627.2083819627078;-165547.28073397564;99166.66666666667;-264713.9474006423
0.32400000000000023;6453661951.0;6314478921.0;-6643634.0;36456.66425113511;37675.966042312466;-740.4015649359062;-191144.12206036286;87583.33333333333;-278727.4553936962
0.32800000000000024;6596054428.0;6462221178.0;-8559227.0;35598.117650568245;36935.56447737656;-846.9469872414484;-214636.650141716;75250.0;-289886.650141716
0.33200000000000024;6734682968.0;6606575647.0;-10521219.0;34657.13332355756;36088.61749013511;-942.9122565668658;-235246.0817526717;62166.666666666664;-297412.7484193383
0.33600000000000024;6869269645.0;6747158467.0;-12475499.0;33646.667736033705;35145.705233568246;-1025.0183670106853;-252616.3968809633;48333.333333333336;-300949.7302142966
0.34000000000000025;6999585128.0;6883641214.0;-14371569.0;32578.869085720362;34120.68686655756;-1091.996597523852;-266949.66257833585;34000.0;-300949.66257833585
0.34400000000000025;7125441216.0;7015755975.0;-16170847.0;31464.020603002155;33028.69026903371;-1145.1676043133448;-278712.12067955185;19000.0;-297712.12067955185
0.34800000000000025;7246682041.0;7143290065.0;-17848849.0;30310.204886960484;31883.522664720364;-1187.0025687182097;-288453.9290104176;3750.0;-292203.9290104176
0.35200000000000026;7363175135.0;7266076145.0;-19394104.0;29123.27200223998;30696.520096002154;-1220.2616810416694;-296733.22118012584;-11833.333333333334;-284899.8878467925
0.35600000000000026;7474804423.0;7383981178.0;-20806043.0;27907.320805581377;29476.258414960485;-1247.6462617205034;-303987.79916465085;-27583.333333333332;-276404.4658313175
0.36000000000000026;7581465575.0;7496895626.0;-22091203.0;26665.286572289628;28228.61215323998;-1271.2130766586051;-310508.55832293746;-43416.666666666664;-267091.8916562708
0.36400000000000027;7683063402.0;7604725222.0;-23259647.0;25399.45549773827;26957.399076581376;-1292.2773252917468;-316457.76863783976;-59250.0;-257207.76863783976
0.36800000000000027;7779511127.0;7707385709.0;-24322307.0;24111.93024508343;25665.12175128963;-1311.5254545513599;-321881.3131637098;-74833.33333333333;-247047.97983037648
0.3720000000000003;7870730188.0;7804800094.0;-25288967.0;22804.764052157272;24353.59629673827;-1329.0916326548395;-326791.5482315393;-90250.0;-236541.54823153932
0.3760000000000003;7956649646.0;7896898112.0;-26167924.0;21479.863627291892;23024.50466408343;-1344.9613439261557;-331225.106216345;-105333.33333333333;-225891.77288301167
0.3800000000000003;8037205450.0;7983616285.0;-26966639.0;20138.95006764508;21679.543320157274;-1359.2451698653822;-335228.38991170283;-120083.33333333333;-215145.05657836952
0.3840000000000003;8112339508.0;8064897477.0;-27692027.0;18783.513447133893;20320.298150291892;-1372.1052436468126;-338859.1551277968;-134250.0;-204609.15512779684
0.3880000000000003;8181998584.0;8140690248.0;-28350740.0;17414.76814058922;18948.19290664508;-1383.7612795111854;-342186.3266361679;-148000.0;-194186.3266361679
0.3920000000000003;8246133383.0;8210947974.0;-28949390.0;16033.699189181969;17564.431627133894;-1394.4872565446713;-345267.2378518132;-161083.33333333334;-184183.90451847986
0.3960000000000003;8304697925.0;8275627751.0;-29494368.0;14641.134724633186;16169.944370589223;-1404.503005407254;-348141.11613719567;-173750.0;-174391.1161371957
0.4000000000000003;8357649369.0;8334689516.0;-29991591.0;13237.860406816915;14765.441365181969;-1413.945053548783;-350818.57945406775;-185833.33333333334;-164985.24612073437
0.4040000000000003;8404948377.0;8388095501.0;-30446132.0;11824.751403940369;13351.496311633186;-1422.819580816271;-353277.2507191367;-197666.66666666666;-155610.58405247
0.4080000000000003;8446565489.0;8435810207.0;-30861830.0;10404.27740213107;11928.676730816915;-1430.9840168765459;-355118.5004523245;-209083.33333333334;-146035.16711899114
0.4120000000000003;8482508121.0;8477800977.0;-31235488.0;8985.657722822645;10497.692713940369;-1436.5412958092984;-354654.91982710635;-220250.0;-134404.91982710638
0.4160000000000003;8512866813.0;8514045582.0;-31537461.0;7589.672653341684;9061.15141813107;-1431.6045183084252;-348996.2673702403;-231333.33333333334;-117662.93403690693
0.4200000000000003;8537851469.0;8544563769.0;-31696956.0;6246.163713511343;7629.546899822645;-1402.8433544809604;-335877.23495758517;-242333.33333333334;-93543.90162425184
0.4240000000000003;8557800224.0;8569470583.0;-31619114.0;4987.188438454219;6226.703545341685;-1340.1617338303413;-314743.81876428105;-253166.66666666666;-61577.1520976144
0.4280000000000003;8573169668.0;8589016750.0;-31216526.0;3842.3607214422773;4886.541811511343;-1241.663991057124;-286206.92925298546;-263500.0;-22706.929252985447
0.43200000000000033;8584511693.0;8603596261.0;-30426593.0;2835.5063187831047;3644.8778204542195;-1110.8605980119419;-251713.60066479314;-273083.3333333333;21369.732668540164
0.43600000000000033;8592437946.0;8613732329.0;-29220636.0;1981.5630230346808;2534.0172224422777;-954.9982516591729;-213485.82393710598;-281500.0;68014.17606289402
0.44000000000000034;8597587703.0;8620048404.0;-27610458.0;1287.4391464257997;1579.0189707831048;-784.7056417484239;-173530.9691522203;-288333.3333333333;114802.36418111304
0.44400000000000034;8600611259.0;8623225657.0;-25637954.0;755.8889578499725;794.3133290346809;-609.3062046088812;-132887.5471439568;-293333.3333333333;160445.78618937652
0.44800000000000034;8602146374.0;8623965685.0;-23354426.0;383.7788018915885;185.0071244257997;-433.3584845758271;-93027.538989596;-296250.0;203222.461010404
0.45200000000000035;8602764138.0;8622972280.0;-20825906.0;154.44099697839172;-248.3513601500274;-263.383795958384;-57334.45122829919;-297000.0;239665.5487717008
0.45600000000000035;8602908078.0;8620925340.0;-18161202.0;35.98505380427103;-511.7351561084114;-114.75553291319682;-29613.985793530173;-295583.3333333333;265969.34753980313
0.46000000000000035;8602867687.0;8618419378.0;-15511300.0;-10.097705827537634;-626.4906890216082;-4.51015717412065;-11520.689907952166;-291916.6666666667;280395.97675871453
0.46400000000000036;8602795531.0;8615895375.0;-13027688.0;-18.03903070980221;-631.0008461957289;60.71255636819126;-1985.3312205661434;-286333.3333333333;284348.0021127672
0.46800000000000036;8602749008.0;8613614222.0;-10818691.0;-11.630807891328141;-570.2882898275376;87.04554611773546;1602.055704618517;-279083.3333333333;280685.3890379518
0.47200000000000036;8602734271.0;8611681252.0;-8932244.0;-3.684159156752141;-483.24274370980214;87.52544381847406;1986.6621836440002;-270750.0;272736.662183644
0.47600000000000037;8602738765.0;8610098383.0;-7364112.0;1.1234787814439806;-395.7172998913281;75.37632473457603;1201.9094845490304;-261666.66666666666;262868.5761512157
0.48000000000000037;8602749118.0;8608817020.0;-6078255.0;2.588124301828848;-320.34097515675205;60.09948893819603;366.1613800962168;-252083.33333333334;252449.49471342957
0.4840000000000004;8602757519.0;8607776055.0;-5026937.0;2.100362427214359;-260.241486218556;46.67131952038491;-121.94046865362218;-242333.33333333334;242211.3928646797
0.4880000000000004;8602761643.0;8606921775.0;-4164256.0;1.030803463591962;-213.5701666981711;36.60752112538549;-267.38974090559924;-232250.0;231982.6102590944
0.4920000000000004;8602760297.0;8606213925.0;-3452282.0;-0.3363310155599225;-176.96264557278562;29.545323036377596;-341.78361978797113;-222166.66666666666;221824.88304687868
0.4960000000000004;8602739272.0;8605624256.0;-2863959.0;-5.256338541817163;-147.41732253640802;23.93075452084811;-1230.0018815643102;-211916.66666666666;210686.66478510236
0.5000000000000003;8602639806.0;8605130310.0;-2391038.0;-24.866446999279198;-123.48656801555991;15.41559547374277;-4902.527114365509;-201666.66666666666;196764.13955230115
0.5040000000000003;8602314825.0;8604698027.0;-2058221.0;-81.24514395082643;-108.07097254181714;-5.298977457462044;-14094.674237886808;-191250.0;177155.32576211318
0.5080000000000003;8601493576.0;8604244548.0;-1929723.0;-205.3123082775398;-113.36994999927919;-50.85328295154724;-31016.791081678344;-180750.0;149733.20891832164
0.5120000000000003;8599780140.0;8603587656.0;-2094080.0;-428.3590399044634;-164.22323295082643;-131.1345153267134;-55761.682906730886;-170333.33333333334;114571.65042660246
