Zeit[sec];Sollposition[°];Istposition[°];Positionsschleppfehler[°];Sollgeschwindigkeit[°/s];Istgeschwindigkeit[°/s];Geschwindigkeitsdifferenz[°/s];Sollbeschleunigung[°/s*s];Istbeschleunigung[°/s*s];Beschleunigungsdifferenz[°/s*s]
0.0;9817499999.0;9817499996.0;3.0;0.0;0.00017999999999999998;0.0;0.0;0.0;0.0
0.004;9817499999.0;9817499996.0;3.0;0.0;0.00017999999999999998;0.0;0.0;0.0;0.0
0.008;9817499999.0;9817499996.0;3.0;0.0;0.00017999999999999998;0.0;0.0;0.0;0.0
0.012;9817499999.0;9817499996.0;3.0;0.0;0.00017999999999999998;0.0;0.0;0.0;0.0
0.016;9817499999.0;9817499996.0;3.0;0.0;0.00017999999999999998;0.0;0.0;0.0;0.0
0.02;9817499999.0;9817499996.0;3.0;0.0;0.00017999999999999998;0.0;0.0;0.0;0.0
0.024;9817499999.0;9817499996.0;3.0;0.0;0.00017999999999999998;0.0;0.0;0.0;0.0
0.028;9817499999.0;9817499996.0;3.0;0.0;0.00017999999999999998;0.0;0.0;0.0;0.0
0.032;9817499999.0;9817499996.0;3.0;0.0;0.00017999999999999998;0.0;0.0;0.0;0.0
0.036000000000000004;9817499999.0;9817499996.0;3.0;0.0;0.00017999999999999998;0.0;0.0;0.0;0.0
0.04000000000000001;9817499999.0;9817499996.0;3.0;0.0;0.00017999999999999998;0.0;0.0;0.0;0.0
0.04400000000000001;9817499999.0;9817499996.0;3.0;0.0;0.00017999999999999998;0.0;0.0;0.0;0.0
0.048000000000000015;9817499999.0;9817499996.0;3.0;0.0;0.00017999999999999998;0.0;0.0;0.0;0.0
0.05200000000000002;9817499999.0;9817499996.0;3.0;0.0;0.00017999999999999998;0.0;0.0;0.0;0.0
0.05600000000000002;9817499999.0;9817499996.0;3.0;0.0;0.00017999999999999998;0.0;0.0;0.0;0.0
0.060000000000000026;9817499999.0;9817499996.0;3.0;0.0;0.00017999999999999998;0.0;0.0;0.0;0.0
0.06400000000000003;9817499999.0;9817499996.0;3.0;0.0;0.00017999999999999998;0.0;0.0;0.0;0.0
0.06800000000000003;9817498675.0;9817499996.0;3.0;-0.3309170115985859;0.00017999999999999998;0.0;-82.72925289964647;0.0;-82.72925289964647
0.07200000000000004;9817485484.0;9817499996.0;-1321.0;-3.297810687906827;0.00017999999999999998;-0.4103570115985859;-741.7234190770603;0.0;-741.7234190770603
0.07600000000000004;9817420646.0;9817498356.0;-12872.0;-16.209408255568782;-0.4101770115985859;-3.659953676308241;-3227.8993919154886;0.0;-3227.8993919154886
0.08000000000000004;9817206380.0;9817482076.0;-61430.0;-53.566375298232536;-4.070130687906827;-15.825077567661955;-9339.241760665938;0.0;-9339.241760665938
0.08400000000000005;9816726333.0;9817402496.0;-196116.0;-120.01182496309713;-19.895208255568782;-45.43812704266376;-16611.362416216147;0.0;-16611.362416216147
0.08800000000000005;9815676674.0;9817141163.0;-414830.0;-262.4147688429308;-65.33333529823254;-79.5682896648646;-35600.73596995842;-166.66666666666666;-35434.069303291755
0.09200000000000005;9813724338.0;9816561557.0;-884883.0;-488.0838940659633;-144.90162496309713;-170.6061238798337;-56417.28130575812;-583.3333333333334;-55833.947972424794
0.09600000000000006;9810513963.0;9815299527.0;-1575189.0;-802.5939004324969;-315.5077488429308;-267.08748522303244;-78627.5015916334;-1416.6666666666667;-77210.83492496672
0.10000000000000006;9805690409.0;9812969147.0;-2455184.0;-1205.8883766125862;-582.5952340659633;-367.30970636653365;-100823.61904502232;-2750.0;-98073.61904502232
0.10400000000000006;9798890552.0;9809169528.0;-3479119.0;-1699.9642423756047;-949.9049404324969;-464.7305761800892;-123518.96644075464;-4833.333333333333;-118685.63310742131
0.10800000000000007;9789752218.0;9803510986.0;-4620434.0;-2284.58334450139;-1414.6355166125861;-562.5547657630186;-146154.77553144633;-7666.666666666667;-138488.10886477964
0.11200000000000007;9777943937.0;9795602225.0;-5850007.0;-2952.070021352216;-1977.1902823756047;-658.3934821257851;-166871.66921270647;-11333.333333333334;-155538.33587937313
0.11600000000000008;9763187997.0;9785059890.0;-7115953.0;-3688.984897414231;-2635.58376450139;-743.443436850826;-184228.71901550377;-15666.666666666666;-168562.0523488371
0.12000000000000008;9745269089.0;9771543782.0;-8355785.0;-4479.726830629514;-3379.027201352216;-811.3047960620147;-197685.48330382066;-20833.333333333332;-176852.14997048734
0.12400000000000008;9724043598.0;9754782455.0;-9513366.0;-5306.372407606112;-4190.3319974142305;-860.1967932152829;-206661.3942441495;-26500.0;-180161.3942441495
0.12800000000000009;9699439454.0;9734580340.0;-10536742.0;-6151.03563447637;-5050.528790629513;-888.0481369765985;-211165.8067175647;-32833.333333333336;-178332.47338423136
0.1320000000000001;9671438081.0;9710826033.0;-11386579.0;-7000.342960430431;-5938.576927606112;-895.6534468702584;-212326.83148851516;-39500.0;-172826.83148851516
0.1360000000000001;9640049486.0;9683489112.0;-12051031.0;-7847.148407998641;-6834.23037447637;-889.1744459540605;-211701.36189205255;-46416.666666666664;-165284.6952253859
0.1400000000000001;9605291283.0;9652595493.0;-12546007.0;-8689.550274759396;-7723.404820430431;-876.50400756821;-210600.4666901888;-53416.666666666664;-157183.80002352214
0.1440000000000001;9567186188.0;9618195858.0;-12904575.0;-9526.273425698071;-8599.90882799864;-863.9159467607551;-209180.78773466867;-60333.333333333336;-148847.45440133536
0.1480000000000001;9525782754.0;9580340559.0;-13154371.0;-10350.857954362038;-9463.824774759396;-851.7109109386747;-206146.13216599173;-67166.66666666667;-138979.46549932507
0.1520000000000001;9481173821.0;9539078417.0;-13295663.0;-11152.232800738419;-10315.53568569807;-833.0620486639673;-200343.7115940951;-73916.66666666667;-126427.04492742845
0.1560000000000001;9433502466.0;9494484027.0;-13310206.0;-11917.838011618913;-11148.597734362038;-802.2474263763797;-191401.30272012355;-80500.0;-110901.30272012357
0.16000000000000011;9382967585.0;9446680647.0;-13178181.0;-12633.719755137452;-11950.845160738418;-757.6837108804957;-178970.4358796348;-87083.33333333333;-91887.10254630148
0.16400000000000012;9329822304.0;9395846532.0;-12878947.0;-13286.319527027455;-12708.528871618913;-697.9277035185387;-163149.94297250087;-93250.0;-69899.94297250087
0.16800000000000012;9274360891.0;9342220706.0;-12398402.0;-13865.352629443296;-13406.456575137452;-623.7670718900026;-144758.2756039601;-99166.66666666667;-45591.60893729343
0.17200000000000013;9216903751.0;9286099812.0;-11738921.0;-14364.284416392169;-14030.223647027455;-539.464242415841;-124732.9467372183;-104500.0;-20232.9467372183
0.17600000000000013;9157785775.0;9227821061.0;-10917310.0;-14779.493322447275;-14569.687889443296;-449.6351269488732;-103802.22651377654;-109333.33333333333;5531.106819556797
0.18000000000000013;9097340515.0;9167743769.0;-9957994.0;-15111.314202103733;-15019.323016392169;-357.64994605510583;-82955.21991411442;-113583.33333333333;30628.113419218906
0.18400000000000014;9035875581.0;9106235878.0;-8895363.0;-15366.232685561044;-15376.972962447275;-268.063019656458;-63729.620864327895;-117083.33333333333;53353.71246900543
0.18800000000000014;8973657211.0;9043655735.0;-7780154.0;-15554.591914545454;-15645.035982103733;-188.00594345731224;-47089.80724610228;-119916.66666666667;72826.85942056439
0.19200000000000014;8910871507.0;8980323568.0;-6666357.0;-15696.425219475843;-15833.041925561045;-121.5314089844087;-35458.326232597305;-122000.0;86541.6737674027
0.19600000000000015;8847840664.0;8916505275.0;-5633768.0;-15757.709883302747;-15954.573334545454;-79.87796493038877;-15321.165956725963;-123583.33333333333;108262.16737660737
0.20000000000000015;8784432863.0;8852367470.0;-4526806.0;-15851.949564201563;-16034.451299475842;5.133056173095611;-23559.920224704;-124583.33333333333;101023.41310862932
0.20400000000000015;8720906543.0;8788250198.0;-3817335.0;-15881.579251539411;-16029.318243302747;-51.671420898815995;-7407.421834462184;-125083.33333333333;117675.91149887114
0.20800000000000016;8657266421.0;8723926240.0;-3019697.0;-15910.029662820514;-16080.989664201563;18.22859266215164;-7112.602820275697;-125333.33333333333;118220.73051305763
0.21200000000000016;8593552452.0;8659675196.0;-2408775.0;-15928.49145330452;-16062.761071539411;8.204908718897059;-4615.4476210012945;-125333.33333333333;120717.88571233203
0.21600000000000016;8529797835.0;8595456972.0;-1904520.0;-15938.653640984294;-16054.556162820514;11.793509515995538;-2540.5469199436084;-125250.0;122709.4530800564
0.22000000000000017;8466028104.0;8531285922.0;-1488087.0;-15942.431904795942;-16042.762653304519;14.823792320225039;-944.5659529119439;-124833.33333333333;123888.76738042138
0.22400000000000017;8402258889.0;8467174167.0;-1146063.0;-15942.303161169659;-16027.938860984294;16.743176188352663;32.18590657070308;-124000.0;124032.1859065707
0.22800000000000017;8338498460.0;8403129385.0;-870496.0;-15940.106261934081;-16011.19568479594;16.662763626281958;549.2248088944507;-122500.0;123049.22480889445
0.23200000000000018;8274754636.0;8339151254.0;-652794.0;-15935.955246927666;-15994.532921169659;15.259019235578307;1037.7537516037592;-120250.0;121287.75375160376
0.23600000000000018;8211040435.0;8275234159.0;-479523.0;-15928.54967741667;-15979.27390193408;14.547275006414566;1851.3923777491073;-117250.0;119101.39237774911
0.24000000000000019;8147381772.0;8211375253.0;-334818.0;-15914.66499939635;-15964.726626927666;16.087869510996825;3471.16950508007;-113500.0;116971.16950508006
0.2440000000000002;8083831363.0;8147580698.0;-198926.0;-15887.601365243612;-15948.63875741667;22.038198020320124;6765.908538184249;-109000.0;115765.90853818425
0.2480000000000002;8020476757.0;8083874296.0;-42933.0;-15838.650912535544;-15926.60055939635;36.42321415273727;12237.61317701701;-103750.0;115987.61317701702
0.25200000000000017;7957436639.0;8020313587.0;163170.0;-15760.028671424163;-15890.177345243612;61.31663270806712;19655.560277845325;-97833.33333333333;117488.89361117865
0.25600000000000017;7894852491.0;7956998145.0;438494.0;-15646.03619167263;-15828.860712535545;95.14168111138133;28498.119937883075;-91250.0;119748.11993788308
0.2600000000000002;7832879730.0;7894063269.0;789222.0;-15493.189665699849;-15733.719031424163;135.03615975153298;38211.631493195455;-84083.33333333333;122294.96482652878
0.2640000000000002;7771679273.0;7831668538.0;1211192.0;-15300.11350141792;-15598.68287167263;178.16472597278153;48269.04107048221;-76416.66666666667;124685.70773714888
0.2680000000000002;7711410657.0;7769986466.0;1692807.0;-15067.153148717405;-15420.518145699849;221.9730642819286;58240.08817512868;-68333.33333333333;126573.42150846201
0.2720000000000002;7652228186.0;7709192286.0;2218371.0;-14795.617062865706;-15198.54508141792;264.49419270051476;67884.02146292492;-60083.333333333336;127967.35479625825
0.2760000000000002;7594275277.0;7649456083.0;2772103.0;-14488.226533726523;-14934.050888717406;304.76000585170004;76847.63228479552;-51500.0;128347.63228479552
0.2800000000000002;7537673692.0;7590938920.0;3336357.0;-14150.395507447618;-14629.290882865705;341.2457691391828;84457.75656972636;-42666.666666666664;127124.42323639304
0.2840000000000002;7482516979.0;7533786740.0;3886952.0;-13789.177654256404;-14288.045113726523;370.866726278904;90304.46329780352;-33583.333333333336;123887.79663113685
0.2880000000000002;7428873692.0;7478118027.0;4398952.0;-13410.821278391426;-13917.178387447619;391.93785319121525;94589.09396624449;-24500.0;119089.09396624449
0.2920000000000002;7376795657.0;7424017065.0;4856627.0;-13019.50812805747;-13525.240534256403;405.8168758649772;97828.28758348887;-15416.666666666666;113244.95425015554
0.2960000000000002;7326326398.0;7371539371.0;5256286.0;-12617.314111050682;-13119.423658391426;415.29269033395576;100548.50425169707;-6500.0;107048.50425169707
0.3000000000000002;7277507419.0;7320722848.0;5603550.0;-12204.74406706024;-12704.13096805747;423.029857006788;103142.51099761078;2083.3333333333335;101059.17766427743
0.3040000000000002;7230381824.0;7271598444.0;5908975.0;-11781.398235030836;-12281.101111050682;430.8955439904439;105836.45800735075;10166.666666666666;95669.7913406841
0.3080000000000002;7184995533.0;7224197622.0;6184202.0;-11346.572109202849;-11850.205567060239;439.85945202940275;108706.5314569968;17666.666666666668;91039.86479033013
0.3120000000000002;7141396847.0;7178556238.0;6439295.0;-10899.671164730982;-11410.346115030836;450.1317058279874;111725.23611796669;24583.333333333332;87141.90278463336
0.3160000000000002;7099635333.0;7134715381.0;6681466.0;-10440.377957746901;-10960.214409202848;461.4312044718663;114823.30174602021;30750.0;84073.30174602021
0.32000000000000023;7059760786.0;7092720249.0;6915084.0;-9968.63636479445;-10498.783204730982;473.31028698408045;117935.39823811261;36416.666666666664;81518.73157144594
0.32400000000000023;7021821948.0;7052618358.0;7142428.0;-9484.70893534384;-10025.472917746902;485.38223295245007;120981.85736265259;41500.0;79481.85736265259
0.32800000000000024;6985864756.0;7014457996.0;7363952.0;-8989.297503516906;-9540.090684794452;497.21886945061124;123852.85795673371;46250.0;77602.85795673371
0.33200000000000024;6951931226.0;6978286509.0;7578247.0;-8483.38208464766;-9042.87181534384;508.26913182693534;126478.85471731161;50500.0;75978.85471731161
0.33600000000000024;6920059253.0;6944148099.0;7783127.0;-7967.992863995396;-8534.602683516905;518.2082188692457;128847.30516306582;54750.0;74097.30516306582
0.34000000000000025;6890282558.0;6912082522.0;7976731.0;-7444.173389275116;-8016.394464647659;527.0054606522635;130954.86868006992;58750.0;72204.86868006992
0.34400000000000025;6862631004.0;6882124966.0;8157592.0;-6912.88830459777;-7489.389003995396;534.671134720279;132821.27116933657;62916.666666666664;69904.6045026699
0.34800000000000025;6837131213.0;6854306095.0;8324909.0;-6374.9474880518555;-6954.717869275117;541.3241046773464;134485.20413647863;66916.66666666667;67568.53746981194
0.35200000000000026;6813806909.0;6828652520.0;8478693.0;-5831.075575879065;-6413.39376459777;547.1678565459151;135967.9780431977;71083.33333333333;64884.64470986439
0.35600000000000026;6792679102.0;6805187617.0;8619292.0;-5281.951554374935;-5866.225908051855;552.3078521727903;137281.00537603247;75166.66666666667;62114.33870936578
0.36000000000000026;6773764910.0;6783931945.0;8747157.0;-4728.547849254695;-5313.918055879065;556.7959215041301;138350.92628005985;79250.0;59100.926280059866
0.36400000000000027;6757074305.0;6764903457.0;8861453.0;-4172.650960367826;-4757.122134374935;560.2614651202393;138974.22222171735;83416.66666666667;55557.55555505068
0.36800000000000027;6742606842.0;6748116015.0;8958290.0;-3616.8656112893636;-4196.8606692546955;561.7071088868697;138946.3372696156;87666.66666666667;51279.670602948914
0.3720000000000003;6730341256.0;6733575401.0;9031441.0;-3066.396347345397;-3635.153560367826;560.1744090784623;137617.3159859917;92000.0;45617.31598599169
0.3760000000000003;6720213689.0;6721275485.0;9065771.0;-2531.8917167744025;-3074.9791512893635;552.5290639439663;133626.15764274859;96166.66666666667;37459.49097608191
0.3800000000000003;6712102811.0;6711185685.0;9028004.0;-2027.7192806751439;-2522.450087345397;532.2386105709945;126043.10902481466;100333.33333333333;25709.77569148134
0.3840000000000003;6705832836.0;6703224840.0;8877971.0;-1567.4936957500743;-1990.2114767744026;495.1704560992587;115056.3962312674;104250.0;10806.3962312674
0.3880000000000003;6701185852.0;6697244676.0;8588160.0;-1161.746055190299;-1495.041020675144;442.8369249250695;101436.9101399438;107916.66666666667;-6479.75652672288
0.3920000000000003;6697916726.0;6693035860.0;8149992.0;-817.2813923043315;-1052.2040957500744;379.4575605597753;86116.16572149191;111000.0;-24883.83427850809
0.3960000000000003;6695769375.0;6690344874.0;7571852.0;-536.837640098217;-672.7465351902991;309.77626288596764;70110.93805152862;113416.66666666667;-43305.728615138054
0.4000000000000003;6694492432.0;6688892993.0;6876382.0;-319.23572504713206;-362.9702723043315;238.71555220611447;54400.47876277123;114916.66666666667;-60516.18790389544
0.4040000000000003;6693856919.0;6688395975.0;6096457.0;-158.87819812480612;-124.25472009821704;170.8064150510849;40089.38173058149;115583.33333333333;-75493.95160275184
0.4080000000000003;6693646652.0;6688582181.0;5274738.0;-52.56692067543914;46.55169495286788;111.05438692232596;26577.819362341743;115416.66666666667;-88838.84730432493
0.4120000000000003;6693648639.0;6689212605.0;4434047.0;0.4967008414342075;157.60608187519384;55.86981744936696;13265.905379218337;114416.66666666667;-101150.76128744833
0.4160000000000003;6693673512.0;6690066508.0;3582131.0;6.2184125325971795;213.4758993245608;1.9486615168733863;1430.427922790743;112666.66666666667;-111236.23874387593
0.4200000000000003;6693716259.0;6690928206.0;2745306.0;10.686735716711118;215.4245608414342;-44.487788308837025;1117.0807960284844;110166.66666666667;-109049.58587063818
0.4240000000000003;6693746451.0;6691611953.0;2104306.0;7.547871111741602;170.93677253259716;-33.99167681588605;-784.7161512423788;107250.0;-108034.71615124238
0.4280000000000003;6693759131.0;6692159733.0;1586718.0;3.16996731117988;136.9450957167111;-34.19414460496952;-1094.4759501404305;103833.33333333333;-104927.80928347376
0.43200000000000033;6693759917.0;6692570736.0;1188395.0;0.196564960440272;102.75095111174159;-28.27728380056172;-743.3505876849019;100333.33333333333;-101076.68392101824
0.43600000000000033;6693755865.0;6692868630.0;891287.0;-1.0128416253908212;74.47366731117987;-20.7998823507396;-302.3516464577733;96666.66666666667;-96969.01831312444
0.44000000000000034;6693751659.0;6693083325.0;672540.0;-1.0514874868712727;53.673784960440265;-14.33422658583109;-9.661465370112865;93166.66666666667;-93176.32813203678
0.44400000000000034;6693749166.0;6693240683.0;510976.0;-0.6232538428505708;39.339558374609176;-9.732485861480452;107.05841100517546;89500.0;-89392.94158899483
0.44800000000000034;6693748410.0;6693359111.0;390055.0;-0.18922288767959047;29.607072513128724;-6.827026355979296;108.50773879274509;85916.66666666667;-85808.15892787393
0.45200000000000035;6693748684.0;6693450231.0;298179.0;0.06872438233334911;22.780046157149428;-5.078529044829022;64.4868175032349;82166.66666666667;-82102.17984916344
0.45600000000000035;6693749285.0;6693521037.0;227647.0;0.1501749718874797;17.701517112320406;-3.973972729987059;20.362647388532643;78500.0;-78479.63735261146
0.46000000000000035;6693749787.0;6693575947.0;173338.0;0.1254687494808303;13.727544382333347;-3.177089410445868;-6.176555601662345;74666.66666666667;-74672.84322226833
0.46400000000000036;6693750044.0;6693618148.0;131639.0;0.06415333825295412;10.55045497188748;-2.526646222406649;-15.328852806969048;70750.0;-70765.32885280697
0.46800000000000036;6693750076.0;6693650243.0;99801.0;0.008144318381340302;8.02380874948083;-1.9715954112278773;-14.002254967903454;66750.0;-66764.0022549679
0.47200000000000036;6693749970.0;6693674451.0;75625.0;-0.02648112686994541;6.052213338252953;-1.5065690198716126;-8.656361312821428;62666.666666666664;-62675.32302797949
0.47600000000000037;6693749816.0;6693692633.0;57337.0;-0.03845505969134673;4.54564431838134;-1.1319054452512858;-2.9934832053503295;58583.333333333336;-58586.32681653868
0.48000000000000037;6693749685.0;6693706287.0;43529.0;-0.03290893512033464;3.4137388731300544;-0.8404539328214016;1.386531142753023;54333.333333333336;-54331.946802190585
0.4840000000000004;6693749615.0;6693716580.0;33105.0;-0.017467969961348136;2.573284940308653;-0.6198938754289878;3.8602412897466256;50166.666666666664;-50162.80642537692
0.4880000000000004;6693749615.0;6693724393.0;25222.0;5.838155844280049e-05;1.953391064879665;-0.4575390348410133;4.381587879947734;45833.333333333336;-45828.951745453385
0.4920000000000004;6693749670.0;6693730376.0;19239.0;0.013802737190542997;1.4958520300386517;-0.3414536484802091;3.436088908025049;41500.0;-41496.56391109197
0.4960000000000004;6693749754.0;6693734993.0;14677.0;0.020996876526083685;1.1543983815584427;-0.25997564436789966;1.7985348338851719;37166.666666666664;-37164.86813183278
0.5000000000000003;6693749841.0;6693738570.0;11184.0;0.021739055568676124;0.894422737190543;-0.2023858606644593;0.18554476064810976;32750.0;-32749.814455239353
0.5040000000000003;6693749913.0;6693741338.0;8503.0;0.017964445835063;0.6920368765260837;-0.16011782095740756;-0.9436524334032809;28416.666666666668;-28417.610319100073
