Zeit[sec];Sollposition[°];Istposition[°];Positionsschleppfehler[°];Sollgeschwindigkeit[°/s];Istgeschwindigkeit[°/s];Geschwindigkeitsdifferenz[°/s];Sollbeschleunigung[°/s*s];Istbeschleunigung[°/s*s];Beschleunigungsdifferenz[°/s*s]
0.0;0.0;-4.0;4.0;-0.0;0.00023999999999999998;0.0;0.0;0.0;0.0
0.004;0.0;-4.0;4.0;-0.0;0.00023999999999999998;0.0;0.0;0.0;0.0
0.008;0.0;-4.0;4.0;-0.0;0.00023999999999999998;0.0;0.0;0.0;0.0
0.012;0.0;-4.0;4.0;-0.0;0.00023999999999999998;0.0;0.0;0.0;0.0
0.016;0.0;-4.0;4.0;-0.0;0.00023999999999999998;0.0;0.0;0.0;0.0
0.02;0.0;-4.0;4.0;-0.0;0.00023999999999999998;0.0;0.0;0.0;0.0
0.024;0.0;-4.0;4.0;-0.0;0.00023999999999999998;0.0;0.0;0.0;0.0
0.028;0.0;-4.0;4.0;-0.0;0.00023999999999999998;0.0;0.0;0.0;0.0
0.032;0.0;-4.0;4.0;-0.0;0.00023999999999999998;0.0;0.0;0.0;0.0
0.036000000000000004;0.0;-4.0;4.0;-0.0;0.00023999999999999998;0.0;0.0;0.0;0.0
0.04000000000000001;0.0;-4.0;4.0;-0.0;0.00023999999999999998;0.0;0.0;0.0;0.0
0.04400000000000001;0.0;-4.0;4.0;-0.0;0.00023999999999999998;0.0;0.0;0.0;0.0
0.048000000000000015;0.0;-4.0;4.0;-0.0;0.00023999999999999998;0.0;0.0;0.0;0.0
0.05200000000000002;0.0;-4.0;4.0;-0.0;0.00023999999999999998;0.0;0.0;0.0;0.0
0.05600000000000002;2150.0;-4.0;4.0;0.5376951033505837;0.00023999999999999998;0.0;134.42377583764593;0.0;134.42377583764593
0.060000000000000026;23584.0;-4.0;2154.0;5.358493506852099;0.00023999999999999998;0.6666951033505837;1205.1996008753788;0.0;1205.1996008753788
0.06400000000000003;128937.0;2663.0;20921.0;26.33808217418753;0.6669351033505837;5.946818403501515;5244.897166833858;0.0;5244.897166833858
0.06800000000000003;477161.0;29118.0;99819.0;87.05612885191154;6.613753506852099;25.713468667335434;15179.511669431002;0.0;15179.511669431002
0.07200000000000004;1360544.0;158426.0;318735.0;220.84566219268956;32.32722217418753;73.85300667772401;33447.38333519451;83.33333333333333;33364.05000186117
0.07600000000000004;3208111.0;583146.0;777398.0;461.8918006772885;106.18022885191154;161.30931334077803;60261.53462114973;333.3333333333333;59928.201287816395
0.08000000000000004;6545079.0;1653104.0;1555007.0;834.2419864887015;267.48954219268956;287.7026784845989;93087.54645285326;1000.0;92087.54645285326
0.08400000000000005;11940468.0;3873872.0;2671207.0;1348.8471583161813;555.1922206772884;439.3221858114131;128651.29295686995;2416.6666666666665;126234.62629020329
0.08800000000000005;19980521.0;7851929.0;4088539.0;2010.0131718033815;994.5144064887015;599.6450918274797;165291.50337180003;4750.0;160541.50337180003
0.09200000000000005;31261981.0;14228566.0;5751955.0;2820.3647046904266;1594.1594983161813;760.9709734872004;202587.88322176127;8250.0;194337.88322176127
0.09600000000000006;46373331.0;23649087.0;7612894.0;3777.837397158871;2355.1304718033816;922.0078728870449;239368.17311711115;12833.333333333334;226534.83978377783
0.10000000000000006;65857153.0;36757640.0;9615691.0;4870.955228823596;3277.1383446904265;1077.6405124684443;273279.4579161813;18833.333333333332;254446.12458284796
0.10400000000000006;90175356.0;54176755.0;11680398.0;6079.550587815218;4354.778857158871;1217.0002516647255;302148.83974790544;26000.0;276148.83974790544
0.10800000000000007;119688061.0;76463871.0;13711485.0;7378.175763602716;5571.779108823596;1330.4605789916213;324656.2939468745;34416.666666666664;290239.6272802078
0.11200000000000007;154641862.0;104072829.0;15615232.0;8738.449890089345;6902.239687815218;1412.8499957874992;340068.53162165725;43833.333333333336;296235.19828832394
0.11600000000000008;195173317.0;137333187.0;17308675.0;10132.863332506313;8315.089683602717;1461.8807064866287;348603.36060424196;54083.333333333336;294520.02727090864
0.12000000000000008;241333364.0;176441068.0;18732249.0;11540.01106947855;9776.970390089346;1479.8278824169665;351786.9342430595;65083.333333333336;286703.6009097261
0.12400000000000008;293122262.0;221468261.0;19865103.0;12947.223904888831;11256.798272506312;1475.1189769722387;351803.20885257015;76416.66666666667;275386.54218590347
0.12800000000000009;350520192.0;272395929.0;20726333.0;14349.481901089783;12731.91724947855;1458.886635410281;350564.4990502378;88000.0;262564.4990502378
0.1320000000000001;413506090.0;329159144.0;21361048.0;15746.473741570813;14190.803884888832;1440.3408962009507;349247.96012025763;99416.66666666667;249831.29345359094
0.1360000000000001;482065005.0;391683723.0;21822367.0;17139.728007164547;15631.144781089783;1424.670980481029;348313.5663984335;110833.33333333333;237480.23306510018
0.1400000000000001;556188119.0;459906986.0;22158019.0;18530.777469934575;17055.81576157081;1413.3933855937357;347762.36569250707;122083.33333333333;225679.03235917373
0.1440000000000001;635869526.0;533783822.0;22404297.0;19920.350895039588;18469.209147164547;1405.8261427700272;347393.3562762531;133250.0;214143.35627625315
0.1480000000000001;721102570.0;613283963.0;22585563.0;21308.260025859618;19875.035289934574;1400.4493851050138;346977.28270500735;144250.0;202727.28270500738
0.1520000000000001;811876860.0;698385901.0;22716669.0;22693.571471574844;21275.48467503959;1395.7754908200295;346327.8614288065;155250.0;191077.8614288065
0.1560000000000001;908174935.0;789070941.0;22805919.0;24074.517404281414;22671.260165859618;1390.6664457152256;345236.4831766427;166166.66666666666;179069.816509976
0.16000000000000011;1009968091.0;885318647.0;22856288.0;25448.28791171088;24061.926611574843;1383.9680727065715;343442.6268573661;177083.33333333334;166359.29352403278
0.16400000000000012;1117212924.0;987102225.0;22865866.0;26811.20687693752;25445.894684281415;1374.3451874294624;340729.7413066599;187916.66666666666;152813.07463999322
0.16800000000000012;1229848137.0;1094383184.0;22829740.0;28158.802132469296;26820.239871710877;1360.7514052266415;336898.8138829445;198750.0;138148.81388294452
0.17200000000000013;1347790716.0;1207107149.0;22740988.0;29485.643327640264;28180.99127693752;1342.2701355317768;331710.2987927419;209500.0;122210.29879274193
0.17600000000000013;1470932252.0;1325200194.0;22590522.0;30785.38251887539;29523.261412469295;1317.8132351709683;324934.7978087817;220166.66666666666;104768.13114211505
0.18000000000000013;1599132635.0;1448564492.0;22367760.0;32050.09426097808;30841.074647640264;1286.3734712351288;316177.93552567216;230583.33333333334;85594.60219233885
0.18400000000000014;1732209801.0;1577074284.0;22058351.0;33269.289806007786;32127.448118875393;1246.1472021026857;304798.8862574266;240833.33333333334;63965.55292409326
0.18800000000000014;1869931811.0;1710568665.0;21641136.0;34430.50087298291;33373.59532097808;1194.1626450297044;290302.76674378186;250833.33333333334;39469.43341044849
0.19200000000000014;2012013061.0;1848839696.0;21092115.0;35520.310793375014;34567.75796600778;1128.2698069751277;272452.4800980253;260666.66666666666;11785.813431358605
0.19600000000000015;2158111471.0;1991623807.0;20389254.0;36524.60067785813;35696.02777298291;1047.638260392101;251072.4711207786;269916.6666666667;-18844.195545888113
0.20000000000000015;2307830593.0;2138598471.0;19513000.0;37429.7788885635;36743.66603337501;951.714644483116;226294.5526763433;278583.3333333333;-52288.78065699001
0.20400000000000015;2460730855.0;2289379993.0;18450600.0;38225.063511667075;37695.38067785813;841.4342107053744;198821.1557758932;286416.6666666667;-87595.51089077348
0.20800000000000016;2616345675.0;2443527252.0;17203603.0;38903.70330213641;38536.8148885635;720.4648031035758;169659.9476173342;293166.6666666667;-123506.7190493325
0.21200000000000016;2774198367.0;2600556370.0;15789305.0;39463.170999925365;39257.27969166708;593.7819104693335;139866.9244472385;298333.3333333333;-158466.4088860948
0.21600000000000016;2933822556.0;2759960616.0;14237751.0;39906.045472626865;39851.06160213641;466.374457788952;110718.61817537501;301583.3333333333;-190864.7151579583
0.22000000000000017;3094785345.0;2921230360.0;12592196.0;40240.69523922628;40317.43605992536;344.1411727015002;83662.44164985437;302750.0;-219087.55835014564
0.22400000000000017;3256704685.0;3083876668.0;10908677.0;40479.83311959269;40661.57723262686;233.63862659942242;59784.47009160118;301833.3333333333;-242048.86324173212
0.22800000000000017;3419260001.0;3247457531.0;9247154.0;40638.82716591765;40895.215859226286;139.44650036640087;39748.51158124147;298583.3333333333;-258834.82175209184
0.23200000000000018;3582200350.0;3411596180.0;7663821.0;40735.085220965775;41034.66235959269;63.99406632496539;24064.5137620304;293250.0;-269185.4862379696
0.23600000000000018;3745345683.0;3575990805.0;6209545.0;40786.331437323024;41098.65642591765;9.001495048119978;12811.554089312267;286000.0;-273188.44591068773
0.24000000000000019;3908578415.0;3740421436.0;4924247.0;40808.180897848506;41107.65792096577;-25.8716636427489;5462.365131370461;277083.3333333333;-271620.9682019629
0.2440000000000002;4071830961.0;3904748581.0;3829834.0;40813.13463504051;41081.78625732302;-43.81531947451731;1238.4342980003566;266916.6666666667;-265678.23236866633
0.2480000000000002;4235072608.0;4068900464.0;2930497.0;40810.40980738479;41037.970937848506;-49.00648280799942;-681.2069139286905;255750.0;-256431.20691392868
0.25200000000000017;4398295876.0;4232856321.0;2216287.0;40805.81493614874;40988.96445504051;-45.57742765571311;-1148.7178090137604;244166.66666666666;-245315.38447568042
0.25600000000000017;4561504453.0;4396629869.0;1666007.0;40802.14231059119;40943.38702738479;-37.61167123605264;-918.1563893871498;232333.33333333334;-233251.4897227205
0.2600000000000002;4724704929.0;4560252970.0;1251483.0;40800.11724692171;40905.77535614874;-28.54406555755122;-506.26591736909177;220500.0;-221006.2659173691
0.2640000000000002;4887902627.0;4723761895.0;943034.0;40799.42247827002;40877.23129059119;-20.53200366947567;-173.69216292354395;208833.33333333334;-209007.0254962569
0.2680000000000002;5051100452.0;4887188692.0;713935.0;40799.4543024292;40856.699286921714;-14.440708651694877;7.956039795317338;197333.33333333334;-197325.377293538
0.2720000000000002;5214299339.0;5050557726.0;542726.0;40799.71991817875;40842.25857827002;-10.240715840816847;66.40393738780404;186000.0;-185933.5960626122
0.2760000000000002;5377499154.0;5213885797.0;413542.0;40799.95162587156;40832.0178624292;-7.485424250451615;57.92692320210335;174833.33333333334;-174775.40641013125
0.2800000000000002;5540699431.0;5377183926.0;315228.0;40800.06749000604;40824.53243817875;-5.667132307193242;28.966033620235976;163750.0;-163721.03396637976
0.2840000000000002;5703899784.0;5540459387.0;240044.0;40800.08626478585;40818.86530587156;-4.395175865516649;4.693694952948135;152750.0;-152745.30630504707
0.2880000000000002;5867100018.0;5703717267.0;182517.0;40800.05645095188;40814.47013000604;-3.432845220188028;-7.453458492818754;141750.0;-141757.45345849282
0.2920000000000002;6030300097.0;5866961416.0;138602.0;40800.017833159014;40811.03728478585;-2.6647138339685625;-9.654448216679157;130833.33333333333;-130842.98778155001
0.2960000000000002;6193500066.0;6030194906.0;105191.0;40799.990368396364;40808.372570951884;-2.0432777928726864;-6.866190662549343;120083.33333333333;-120090.19952399588
0.3000000000000002;6356699985.0;6193420223.0;79843.0;40799.977932190246;40806.32929315901;-1.5483447626465932;-3.1090515294636134;109333.33333333333;-109336.44238486279
0.3040000000000002;6519899898.0;6356639346.0;60639.0;40799.97630648058;40804.780948396365;-1.1646762061209301;-0.4064274162374204;98750.0;-98750.40642741624
0.3080000000000002;6683099825.0;6519853811.0;46087.0;40799.979624150095;40803.616272190244;-0.8747457096615108;0.8294173785543535;88166.66666666667;-88165.83724928812
0.3120000000000002;6846299767.0;6683064777.0;35048.0;40799.98362530958;40802.74152648058;-0.6590223304883693;1.000289870717097;77916.66666666667;-77915.66637679595
0.3160000000000002;7009499720.0;6846273107.0;26660.0;40799.98634526307;40802.082504150094;-0.4992788405143074;0.6799883722123923;67833.33333333333;-67832.65334496112
0.32000000000000023;7172699678.0;7009479439.0;20281.0;40799.987499035946;40801.58322530958;-0.38002004651207244;0.2884432196879061;58166.666666666664;-58166.378223446976
0.32400000000000023;7335899636.0;7172684251.0;15427.0;40799.98758235196;40801.20320526307;-0.2900862271199003;0.020829003915423527;48916.666666666664;-48916.64583766275
0.32800000000000024;7499099592.0;7335887903.0;11733.0;40799.98720903756;40800.91311903595;-0.22155668398772832;-0.093328600996756;40083.333333333336;-40083.42666193433
0.33200000000000024;7662299547.0;7499090669.0;8923.0;40799.98680087038;40800.69156235196;-0.16897331440122798;-0.1020417948893737;31916.666666666668;-31916.768708461557
0.33600000000000024;7825499501.0;7662292759.0;6788.0;40799.98653885248;40800.52258903756;-0.12850816718128044;-0.06550447506015189;24500.0;-24500.06550447506
0.34000000000000025;7988699455.0;7825494335.0;5166.0;40799.986437665815;40800.39408087038;-0.09758201790100429;-0.025296665626228787;18000.0;-18000.025296665626
0.34400000000000025;8151899408.0;7988695520.0;3935.0;40799.986440180226;40800.296498852476;-0.07396118665928952;0.00062860272009857;12416.666666666666;-12416.666038063946
0.34800000000000025;8315099362.0;8151896410.0;2998.0;40799.9864830592;40800.22253766582;-0.05621748558769468;0.010719742931541987;7750.0;-7749.9892802570685
0.35200000000000026;8478299316.0;8315097075.0;2287.0;40799.986525281434;40800.16632018023;-0.04261712103470927;0.010555559128988534;4083.3333333333335;-4083.3227777742045
0.35600000000000026;8641499270.0;8478297569.0;1747.0;40799.9865507531;40800.123703059195;-0.032357777759898454;0.006367916284943931;1333.3333333333333;-1333.3269654170483
0.36000000000000026;8804699224.0;8641497934.0;1336.0;40799.98655960419;40800.091345281435;-0.02463452833762858;0.002212773324572481;-500.0;500.0022127733246
0.36400000000000027;8967899178.0;8804698200.0;1024.0;40799.98655837727;40800.0667107531;-0.018711148906731978;-0.00030673072615172714;-1583.3333333333333;1583.333026602607
0.36800000000000027;9131098996.0;8967898391.0;787.0;40799.952553800125;40800.04799960419;-0.014221226920199115;-8.501144286128692;-2166.6666666666665;2158.165522380538
0.3720000000000003;9294297798.0;9131098526.0;470.0;40799.69871799431;40800.03377837727;-0.05302457714424236;-63.458951453867485;-2333.3333333333335;2269.874381879466
0.3760000000000003;9457492920.0;9294298449.0;-651.0;40798.778370445565;40799.980753800126;-0.3210958058189135;-230.08688718618941;-2166.6666666666665;1936.579779480477
0.3800000000000003;9620677218.0;9457497087.0;-4167.0;40796.072669954476;40799.65965799431;-1.1313075487414608;-676.4251227723435;-1833.3333333333333;1156.9082105609898
0.3840000000000003;9783830533.0;9620691200.0;-13982.0;40788.326784927754;40798.528350445566;-3.294600491091842;-1936.4712566803064;-1500.0;-436.4712566803064
0.3880000000000003;9946905577.0;9783872134.0;-41601.0;40768.75912406278;40795.233749954474;-9.403025026716932;-4891.915216243433;-1166.6666666666667;-3725.248549576766
0.3920000000000003;10109815037.0;9947015456.0;-109879.0;40727.36301989931;40785.83072492776;-23.66434086497611;-10349.026040867102;-916.6666666666666;-9432.359374200436
0.3960000000000003;10272420030.0;10110064121.0;-249084.0;40651.24638067233;40762.16638406278;-49.74840416346706;-19029.159806745156;-750.0;-18279.159806745156
0.4000000000000003;10434517641.0;10272913792.0;-493762.0;40524.40075418036;40712.417979899314;-90.79731922697829;-31711.40662299331;-833.3333333333334;-30878.073289659977
0.4040000000000003;10595834586.0;10435400274.0;-882633.0;40329.234295584;40621.620660672335;-150.1778864919761;-48791.61464908975;-1083.3333333333333;-47708.281315756416
0.4080000000000003;10756030315.0;10597286045.0;-1451459.0;40048.93035744127;40471.44277418036;-229.29601859636023;-70075.98453568244;-1750.0;-68325.98453568244
0.4120000000000003;10914704149.0;10758254632.0;-2224317.0;39668.456645276485;40242.146755584;-326.67541814273136;-95118.42804119624;-2916.6666666666665;-92201.76137452957
0.4160000000000003;11071406559.0;10917916517.0;-3212368.0;39175.60066793598;39915.47133744127;-439.75677216477925;-123213.9943351267;-4833.333333333333;-118380.66100179337
0.4200000000000003;11225658612.0;11075819375.0;-4412816.0;38563.011482900525;39475.71456527649;-564.8828573405117;-153147.2962588632;-7333.333333333333;-145813.96292552986
0.4240000000000003;11376975835.0;11231462701.0;-5804089.0;37829.30375429428;38910.83170793598;-696.0655650354529;-183426.93215156213;-10833.333333333334;-172593.5988182288
0.4280000000000003;11524888947.0;11384321765.0;-7345930.0;36978.276245279405;38214.766142900524;-826.2181886062463;-212756.87725371792;-15166.666666666666;-197590.21058705123
0.43200000000000033;11668961936.0;11533875956.0;-8987009.0;36018.24557599974;37388.54795429428;-949.4922490148747;-240007.66731991642;-20583.333333333332;-219424.3339865831
0.43600000000000033;11808809147.0;11679632178.0;-10670242.0;34961.80112644063;36439.0557052794;-1061.024649279665;-264111.1123897772;-27000.0;-237111.1123897772
0.44000000000000034;11944105086.0;11821144302.0;-12335155.0;33823.983080430036;35378.03105599974;-1156.3392295591038;-284454.51150264853;-34333.333333333336;-250121.1781693152
0.44400000000000034;12074585123.0;11958031069.0;-13925983.0;32620.007752940186;34221.691826440634;-1233.2677260105993;-300993.8318724626;-42666.666666666664;-258327.1652057959
0.44800000000000034;12200042364.0;12089984765.0;-15399642.0;31364.308864859966;32988.424100430035;-1292.3948674898493;-313924.722020055;-51583.333333333336;-262341.3886867217
0.45200000000000035;12320321182.0;12216768881.0;-16726517.0;30069.703102283143;31696.029232940185;-1335.3113880802193;-323651.44064420566;-61250.0;-262401.44064420566
0.45600000000000035;12435307189.0;12338211752.0;-17890570.0;28746.50032221162;30360.717844859966;-1364.4489425768224;-330800.6950178806;-71250.0;-259550.6950178806
0.46000000000000035;12544917256.0;12454196827.0;-18889638.0;27402.515535560844;28996.268902283144;-1383.1468600715234;-335996.1966626943;-81666.66666666667;-254329.5299960276
0.46400000000000036;12649091206.0;12564649315.0;-19732059.0;26043.48614839005;27613.12204221162;-1394.530046650776;-339757.3467926986;-92250.0;-247507.34679269863
0.46800000000000036;12747785262.0;12669523682.0;-20432476.0;24673.512917024516;26218.591995560844;-1401.0544071707955;-342493.30784138327;-103083.33333333333;-239409.97450804996
0.47200000000000036;12840967866.0;12768793832.0;-21008570.0;23295.649784160807;24817.53758839005;-1404.5388713655339;-344465.7832159273;-113916.66666666667;-230549.11654926065
0.47600000000000037;12928616928.0;12862445826.0;-21477960.0;21912.26440499984;23412.998717024515;-1406.026532863707;-345846.34479024133;-124833.33333333333;-221013.01145690802
0.48000000000000037;13010717147.0;12950473714.0;-21856786.0;20525.05379401744;22006.972184160808;-1406.1149391609652;-346802.65274560044;-135833.33333333334;-210969.31941226707
0.4840000000000004;13087257386.0;13032877142.0;-22159995.0;19135.058948238056;20600.857244999843;-1405.4031509824017;-347498.7114448459;-146833.33333333334;-200665.37811151252
0.4880000000000004;13158228706.0;13109658958.0;-22401572.0;17742.82901151771;19195.45409401744;-1404.4894657793848;-348057.48418008623;-157833.33333333334;-190224.15084675292
0.4920000000000004;13223623510.0;13180822816.0;-22594110.0;16348.700430316412;17790.964628238056;-1403.7822167203449;-348532.14530032483;-168750.0;-179782.14530032483
0.4960000000000004;13283435739.0;13246371545.0;-22748035.0;14953.056387351713;16387.18241151771;-1403.3640812013;-348911.0107411748;-179750.0;-169161.01074117477
0.5000000000000003;13337661767.0;13306306818.0;-22871079.0;13556.506515897185;14983.818330316411;-1403.026682964699;-349137.4678636321;-190750.0;-158387.46786363208
0.5040000000000003;13386302538.0;13360629984.0;-22968217.0;12160.19202860893;13580.791647351713;-1402.378151454528;-349078.6218220637;-201666.66666666666;-147411.95515539707
0.5080000000000003;13429366788.0;13409343637.0;-23041099.0;10766.061947484577;12178.413495897184;-1400.6874072882547;-348532.5202810882;-212666.66666666666;-135865.85361442153
