Zeit[sec];Sollposition[°];Istposition[°];Positionsschleppfehler[°];Sollgeschwindigkeit[°/s];Istgeschwindigkeit[°/s];Geschwindigkeitsdifferenz[°/s];Sollbeschleunigung[°/s*s];Istbeschleunigung[°/s*s];Beschleunigungsdifferenz[°/s*s]
0.0;-9979199999.0;-9979194946.0;-5053.0;0.0;0.06637349265813827;-0.3695534927107531;0.0;0.0;0.0
0.004;-9979199999.0;-9979194946.0;-5053.0;0.0;0.29996837460249665;-0.6031483746551114;0.0;0.0;0.0
0.008;-9979199999.0;-9979205933.0;5934.0;0.0;-2.5852460654824974;2.9412860654990602;0.0;-83.33333333333333;83.33333333333333
0.012;-9979199999.0;-9979205933.0;5934.0;0.0;-1.7687019171491265;2.1247419171656894;0.0;0.0;0.0
0.016;-9979199999.0;-9979200439.0;440.0;0.0;0.03300969102233648;-0.006609690997581703;0.0;0.0;0.0
0.02;-9979199999.0;-9979205933.0;5934.0;0.0;-0.6164596446305514;0.9724996446471144;0.0;0.0;0.0
0.024;-9979199999.0;-9979205933.0;5934.0;0.0;0.8358337864130736;-0.4797937863965106;0.0;0.0;0.0
0.028;-9979199999.0;-9979205933.0;5934.0;0.0;-1.829302910938859;2.185342910955422;0.0;83.33333333333333;-83.33333333333333
0.032;-9979199999.0;-9979194946.0;-5053.0;0.0;3.4740013359040023;-3.777181335956617;0.0;83.33333333333333;-83.33333333333333
0.036000000000000004;-9979199999.0;-9979194946.0;-5053.0;0.0;0.6296105376556516;-0.9327905377082664;0.0;83.33333333333333;-83.33333333333333
0.04000000000000001;-9979199999.0;-9979194946.0;-5053.0;0.0;0.39781298345327376;-0.7009929835058886;0.0;-83.33333333333333;83.33333333333333
0.04400000000000001;-9979199999.0;-9979194946.0;-5053.0;0.0;0.6530635541081429;-0.9562435541607577;0.0;0.0;0.0
0.048000000000000015;-9979199999.0;-9979194946.0;-5053.0;0.0;0.40060015431791546;-0.7037801543705302;0.0;-83.33333333333333;83.33333333333333
0.05200000000000002;-9979199999.0;-9979200439.0;440.0;0.0;-1.9583673739582301;1.984767373982985;0.0;0.0;0.0
0.05600000000000002;-9979257292.0;-9979194946.0;-5053.0;-14.32301874212327;0.6055625499784947;-0.9087425500311095;-3580.754685530818;0.0;-3580.754685530818
0.060000000000000026;-9979339310.0;-9979200439.0;-22276.0;-20.504724896443975;-1.322533330373466;-5.692879803631722;-1545.426538580176;0.0;-1545.426538580176
0.06400000000000003;-9979465811.0;-9979205933.0;-83542.0;-31.625015837056353;-1.2196070275083184;-20.482957677673348;-2780.0727351530945;-83.33333333333333;-2696.739401819761
0.06800000000000003;-9979623336.0;-9979244385.0;-144600.0;-39.381251677319256;-10.310389603324234;-23.24313596204916;-1939.0589600657258;-416.6666666666667;-1522.392293399059
0.07200000000000004;-9979793039.0;-9979304810.0;-222716.0;-42.42573982447293;-17.901040067002178;-30.0970041348018;-761.122036788418;-833.3333333333334;72.21129654491543
0.07600000000000004;-9979967863.0;-9979414673.0;-275025.0;-43.7061977639298;-28.299023949310183;-28.74537301388844;-320.11448486421835;-1833.3333333333333;1513.2188484691148
0.08000000000000004;-9980150893.0;-9979519043.0;-342317.0;-45.757349715368605;-25.173181862168015;-38.28142073039455;-512.787987859701;-1833.3333333333333;1320.5453454736323
0.08400000000000005;-9980339947.0;-9979623413.0;-415994.0;-47.26352737260144;-22.775840278401972;-46.695744501792944;-376.54441430820816;-1500.0;1123.4555856917918
0.08800000000000005;-9980520379.0;-9979760742.0;-464035.0;-45.10815477472722;-34.92230123479664;-39.262305919173336;538.8431494685549;-333.3333333333333;872.1764828018881
0.09200000000000005;-9980678923.0;-9979854126.0;-556252.0;-39.63584528292987;-24.990077997751534;-54.78517255772204;1368.0773729493367;-166.66666666666666;1534.7440396160034
0.09600000000000006;-9980805377.0;-9979953003.0;-629179.0;-31.61341924708996;-20.815526171177627;-59.88631253114326;2005.6065089599774;250.0;1755.6065089599774
0.10000000000000006;-9980880785.0;-9980013428.0;-714703.0;-18.852196795835756;-2.299516446605325;-77.06980657693899;3190.3056128135513;166.66666666666666;3023.638946146885
0.10400000000000006;-9980889656.0;-9980084839.0;-749695.0;-2.217639738327875;-9.669828595608474;-61.91267174624442;4158.6392643769705;1333.3333333333333;2825.305931043637
0.10800000000000007;-9980834087.0;-9980134277.0;-749583.0;13.89232613062227;-13.54624336628616;-43.760364258920674;4027.491467237536;1333.3333333333333;2694.1581339042027
0.11200000000000007;-9980728286.0;-9980117798.0;-749773.0;26.450073839574284;1.2008764435872437;-42.11501454078751;3139.4369272380036;1666.6666666666667;1472.7702605713368
0.11600000000000008;-9980588162.0;-9980084839.0;-707624.0;35.03103900715085;3.365208497606218;-27.045765946408544;2145.2412918941423;1833.3333333333333;311.9079585608089
0.12000000000000008;-9980427425.0;-9980035400.0;-637948.0;40.18430105031335;20.715975356653335;-29.21414345866894;1288.3155107906248;916.6666666666666;371.64884412395816
0.12400000000000008;-9980258358.0;-9980007935.0;-517317.0;42.26675155419263;1.0081086927428842;4.976819101998795;520.6126259698199;1833.3333333333333;-1312.7207073635134
0.12800000000000009;-9980088352.0;-9979947510.0;-413823.0;42.50152322676393;11.760834873303772;4.389550368620856;58.692918142824624;0.0;58.692918142824624
0.1320000000000001;-9979924784.0;-9979909058.0;-282885.0;40.891999764263566;12.657919351957739;12.716613643743267;-402.3808656250907;583.3333333333334;-985.714198958424
0.1360000000000001;-9979783695.0;-9979876099.0;-148396.0;35.272226131991076;11.067506934829057;21.890729772578645;-1404.9434080681226;-833.3333333333334;-571.6100747347894
0.1400000000000001;-9979678792.0;-9979892578.0;22776.0;26.225827116580845;-3.380679332353175;43.42051746199699;-2261.5997538525576;-500.0;-1761.5997538525576
0.1440000000000001;-9979610138.0;-9979870605.0;127677.0;17.16350761922256;-0.3063339653089643;39.685352598907;-2265.5798743395712;-500.0;-1765.5798743395712
0.1480000000000001;-9979568525.0;-9979881592.0;229407.0;10.403158729199923;-2.090419934377074;38.54060521322191;-1690.0872225056594;-666.6666666666666;-1023.4205558389928
0.1520000000000001;-9979542323.0;-9979887085.0;293045.0;6.550406103282678;-1.3286297369748354;33.44756418005263;-963.1881564793113;-416.6666666666667;-546.5214898126445
0.1560000000000001;-9979521715.0;-9979898071.0;339692.0;5.152036083264052;-2.504453182220459;31.801187113722012;-349.59250500465646;-416.6666666666667;67.07416166201024
0.16000000000000011;-9979500664.0;-9979920044.0;385739.0;5.262682293272349;-6.394020452082157;35.55690941442605;27.66155250207425;-166.66666666666666;194.3282191687409
0.16400000000000012;-9979476757.0;-9979892578.0;379090.0;5.976826100330514;3.9923144270554185;23.957184724097196;178.53595176454107;250.0;-71.46404823545893
0.16800000000000012;-9979449930.0;-9979892578.0;401270.0;6.706689490829622;3.389886756286025;26.231494080445998;182.46584762477713;166.66666666666666;15.799180958110476
0.17200000000000013;-9979421108.0;-9979865112.0;398852.0;7.205555833286725;3.5937341193780306;26.599406974726513;124.71658561427579;750.0;-625.2834143857242
0.17600000000000013;-9979391280.0;-9979821167.0;382508.0;7.45714581550565;10.341911332428456;19.50877432501072;62.89749555473123;583.3333333333334;-520.4358377786021
0.18000000000000013;-9979361101.0;-9979782715.0;373265.0;7.544624346449603;10.523280970871449;19.17500331436422;21.869632735988187;666.6666666666666;-644.7970339306785
0.18400000000000014;-9979330864.0;-9979727783.0;348295.0;7.5593187600082015;12.241702284432948;16.14635324166673;3.6736033896496156;500.0;-496.3263966103504
0.18800000000000014;-9979300622.0;-9979683838.0;334550.0;7.560467515860814;6.012343464799225;21.610594417532855;0.2871889631530511;500.0;-499.712811036847
0.19200000000000014;-9979270336.0;-9979667358.0;348308.0;7.571375997588238;3.8493622030839325;24.60880592056563;2.7271204318561892;-250.0;252.72712043185618
0.19600000000000015;-9979199999.0;-9979667358.0;378568.0;17.584219158672596;2.850435373030603;27.428430454388618;2503.2107902710895;-1000.0;3503.2107902710895
0.20000000000000015;-9979199999.0;-9979656372.0;413747.0;0.0;5.295506808049977;31.07056113530698;-4396.054789668149;-1083.3333333333333;-3312.7214563348157
0.20400000000000015;-9979199999.0;-9979650879.0;450468.0;0.0;0.9341645905673505;36.64759742219968;0.0;-166.66666666666666;166.66666666666666
0.20800000000000016;-9979199999.0;-9979639893.0;439894.0;0.0;-1.5772879473343493;28.073960481497686;0.0;333.3333333333333;-333.3333333333333
0.21200000000000016;-9979118126.0;-9979645386.0;445387.0;20.468311937795942;-4.532454211175442;31.2556742111448;5117.077984448985;-166.66666666666666;5283.744651115652
0.21600000000000016;-9979087233.0;-9979628906.0;461369.0;7.723320859852143;-0.45882577973604205;36.256331645696605;-3186.24776948595;0.0;-3186.24776948595
0.22000000000000017;-9979054326.0;-9979601440.0;495084.0;8.226812656292443;8.750993544586002;36.249237055986626;125.87294911007518;-166.66666666666666;292.5396157767418
0.22400000000000017;-9979018288.0;-9979513550.0;439184.0;9.009534613571592;20.257638408623635;14.091026763602294;195.6804893197872;1333.3333333333333;-1137.652844013546
0.22800000000000017;-9978974672.0;-9979469604.0;429375.0;10.90378262334167;15.941366548016667;18.35533298700644;473.5620024425193;916.6666666666666;-443.1046642241473
0.23200000000000018;-9978912732.0;-9979420166.0;418960.0;15.485170924382782;14.993174228295684;19.90041386208864;1145.3470752602782;916.6666666666666;228.6804085936115
0.23600000000000018;-9978825308.0;-9979381714.0;431346.0;21.855994648562273;11.28271239874512;27.30717999233019;1592.7059310448728;-416.6666666666667;2009.3725977115396
0.24000000000000019;-9978714564.0;-9979315796.0;437364.0;27.685922071614993;13.421661654748023;30.804437260101466;1457.48185576318;83.33333333333333;1374.1485224298465
0.2440000000000002;-9978586886.0;-9979222412.0;440501.0;31.91949829441924;23.990645968697965;26.569554765261767;1058.3940557010615;416.6666666666667;641.7273890343947
0.2480000000000002;-9978450296.0;-9979118042.0;453452.0;34.147468968957135;29.304844487540425;27.232584675712975;556.9926686344742;1083.3333333333333;-526.3406646988591
0.25200000000000017;-9978305833.0;-9978986206.0;452729.0;36.11572659001907;33.73274855539203;26.209039188838197;492.0644052654843;1333.3333333333333;-841.268928067849
0.25600000000000017;-9978141727.0;-9978859863.0;466045.0;41.02667163829126;32.87545882066339;30.00203902531655;1227.7362620680474;1083.3333333333333;144.40292873471418
0.2600000000000002;-9977949315.0;-9978744507.0;502894.0;48.10290307071357;32.776314726740125;35.448632081953576;1769.057858105578;416.6666666666667;1352.3911914389112
0.2640000000000002;-9977741442.0;-9978601685.0;535286.0;51.968339444084855;35.91515554627776;40.00551622026185;966.3590933428203;166.66666666666666;799.6924266761537
0.2680000000000002;-9977548742.0;-9978420410.0;552387.0;48.1749443395115;42.92493593356758;39.81230996823514;-948.3487761433391;916.6666666666666;-1865.0154428100057
0.2720000000000002;-9977395406.0;-9978222656.0;556399.0;38.334074028157055;47.42818758173287;36.397420933974885;-2460.217577838611;1583.3333333333333;-4043.550911171944
0.2760000000000002;-9977296447.0;-9978079834.0;590759.0;24.739631374781457;38.74206922415644;40.99889072494308;-3398.6106633438994;583.3333333333334;-3981.943996677233
0.2800000000000002;-9977269856.0;-9977975464.0;618396.0;6.647640521366519;22.88541233929247;47.22009893945375;-4522.997713353734;-666.6666666666666;-3856.331046687068
0.2840000000000002;-9977321209.0;-9977947998.0;661515.0;-12.838097776269416;4.188588510587811;53.14840611554866;-4871.434574408984;-2666.6666666666665;-2204.767907742317
0.2880000000000002;-9977440257.0;-9977964478.0;674106.0;-29.761980236714592;-7.544608467571438;47.018825977598375;-4230.970615111294;-3250.0;-980.970615111294
0.2920000000000002;-9977618267.0;-9978035889.0;667780.0;-44.50254772329922;-18.182754446685315;38.81557595832419;-3685.1418716461576;-3833.3333333333335;148.19146168717577
0.2960000000000002;-9977845786.0;-9978085327.0;575189.0;-56.87964957093685;-17.283738536186515;16.287856986237202;-3094.275461909406;-2416.6666666666665;-677.6087952427399
0.3000000000000002;-9978104111.0;-9978277588.0;570156.0;-64.58130739587249;-42.804209195382896;27.690064494264018;-1925.4144562339093;-2833.3333333333335;907.9188770994242
0.3040000000000002;-9978369880.0;-9978348999.0;402124.0;-66.442233320526;-25.929619766525924;-9.803654712372143;-465.23148116337865;-1500.0;1034.7685188366213
0.3080000000000002;-9978626581.0;-9978530273.0;322302.0;-64.17525272286004;-43.50319494105876;-2.4326936056964286;566.7451494164908;-1583.3333333333333;2150.078482749824
0.3120000000000002;-9978859185.0;-9978596191.0;126090.0;-58.15116678715544;-13.894178985036909;-44.07292808722243;1506.0214839261494;-83.33333333333333;1589.3548172594828
0.3160000000000002;-9979043251.0;-9978700562.0;-16739.0;-46.01627947071321;-27.13594204479456;-35.66847782027905;3033.721829110558;1166.6666666666667;1867.055162443891
0.32000000000000023;-9979199999.0;-9978711548.0;-219253.0;-39.18723360136823;-1.3478535708263517;-65.18249738141306;1707.2614673362452;1250.0;457.2614673362452
0.32400000000000023;-9979199999.0;-9978771973.0;-332348.0;0.0;-17.162211366951468;-46.158440975710754;9796.808400342057;2500.0;7296.808400342057
0.32800000000000024;-9979199999.0;-9978717041.0;-482039.0;0.0;10.874458705835044;-63.486920425435834;0.0;1083.3333333333333;-1083.3333333333333
0.33200000000000024;-9979199999.0;-9978667603.0;-532396.0;0.0;11.411339024111628;-43.5847117210281;0.0;2666.6666666666665;-2666.6666666666665
0.33600000000000024;-9979199999.0;-9978579712.0;-620287.0;0.0;26.540051407188177;-63.757271407094876;0.0;1333.3333333333333;-1333.3333333333333
0.34000000000000025;-9979199999.0;-9978519287.0;-680712.0;0.0;11.683756544008851;-52.526476543972244;0.0;2250.0;-2250.0
0.34400000000000025;-9979199999.0;-9978535767.0;-664232.0;0.0;-1.3269409657642246;-38.526979034121865;0.0;-1000.0;1000.0
0.34800000000000025;-9979199999.0;-9978579712.0;-620287.0;0.0;-14.235413608290255;-22.98180639161644;0.0;-1333.3333333333333;1333.3333333333333
0.35200000000000026;-9979199999.0;-9978667603.0;-532396.0;0.0;-19.138411420561372;-12.805348579472085;0.0;-3666.6666666666665;3666.6666666666665
0.35600000000000026;-9979199999.0;-9978706055.0;-493944.0;0.0;-16.00242902742326;-13.634210972638918;0.0;-1083.3333333333333;1083.3333333333333
0.36000000000000026;-9979199999.0;-9978771973.0;-428026.0;0.0;-16.25568223261088;-9.425877767386481;0.0;-916.6666666666666;916.6666666666666
0.36400000000000027;-9979199999.0;-9978832397.0;-367602.0;0.0;-19.080705572225153;-2.9754144276992065;0.0;500.0;-500.0
0.36800000000000027;-9979127220.0;-9978865356.0;-334643.0;18.19493551751946;-12.855458257243038;-7.2231217427181615;4548.733879379865;0.0;4548.733879379865
0.3720000000000003;-9979022475.0;-9978865356.0;-305786.0;26.186242023484425;3.853697530724108;-14.986849893877146;1997.826626491241;500.0;1497.826626491241
0.3760000000000003;-9978861062.0;-9978843384.0;-242732.0;40.3531736025099;4.589124239511788;2.103708493147776;3541.7328947563683;1583.3333333333333;1958.399561423035
0.3800000000000003;-9978660532.0;-9978760986.0;-198104.0;50.1326172564006;23.134900170765818;-3.264755196018136;2444.8609134726757;1833.3333333333333;611.5275801393423
0.3840000000000003;-9978445815.0;-9978634644.0;-147856.0;53.679120798421366;33.283925202861425;1.9922756398645376;886.6258855051914;3000.0;-2113.3741144948085
0.3880000000000003;-9978227480.0;-9978425903.0;-150671.0;54.58381846928737;54.19750399521738;-11.75631492620127;226.1744177165017;2916.6666666666665;-2690.4922489501646
0.3920000000000003;-9978003379.0;-9978200684.0;-159822.0;56.02529363942483;51.054270814701916;-6.626551819787295;360.3687925343646;4000.0;-3639.6312074656353
0.3960000000000003;-9977778165.0;-9978041382.0;-98524.0;56.30339122342073;34.76831324434281;14.470286644039462;69.52439599897531;1750.0;-1680.4756040010247
0.4000000000000003;-9977572497.0;-9977964478.0;49081.0;51.41693965440141;22.972053081527353;36.09991576109596;-1221.6128922548303;-1333.3333333333333;111.72044107850287
0.4040000000000003;-9977404611.0;-9977893066.0;195127.0;41.97165156776034;21.448926443807782;44.62305360531295;-2361.3220216602676;-3500.0;1138.6779783397324
0.4080000000000003;-9977286883.0;-9977860107.0;352970.0;29.43184377183769;6.937886690691114;61.94097537211056;-3134.951948980662;-2666.6666666666665;-468.2852823139956
0.4120000000000003;-9977240020.0;-9977887573.0;528656.0;11.715907824057387;-6.289412112638354;75.06392930872563;-4428.983986945076;-2000.0;-2428.983986945076
0.4160000000000003;-9977278692.0;-9977915039.0;646048.0;-9.667964526697387;-7.308723551027477;68.55283096748576;-5345.968087688694;-2000.0;-3345.9680876886937
0.4200000000000003;-9977395408.0;-9977986450.0;730823.0;-29.17918642885414;-12.80130041050911;59.992021282675466;-4877.805475539189;-2500.0;-2377.8054755391886
0.4240000000000003;-9977568227.0;-9978112793.0;788052.0;-43.20470231018453;-34.27655276429653;64.28110974325024;-3506.378970332597;-1666.6666666666667;-1839.7123036659304
0.4280000000000003;-9977774490.0;-9978189697.0;726453.0;-51.565712909379336;-18.073933102108537;27.035352340764824;-2090.2526497987014;-1833.3333333333333;-256.91931646536824
0.43200000000000033;-9977995613.0;-9978327026.0;678032.0;-55.28082384638664;-35.398204809352755;29.642593194477865;-928.7777342518258;-666.6666666666666;-262.1110675851591
0.43600000000000033;-9978215584.0;-9978365479.0;504526.0;-54.992698557385616;-4.7794804980307815;-17.938665552763453;72.03132225025577;-666.6666666666666;738.6979889169224
0.44000000000000034;-9978425245.0;-9978420410.0;338878.0;-52.41535468858658;-14.650548932336271;-20.161589510711615;644.3359671997584;1916.6666666666667;-1272.3306994669083
0.44400000000000034;-9978617405.0;-9978420410.0;122988.0;-48.03981922584372;-0.6459544640034437;-45.94727575444527;1093.8838656857151;1166.6666666666667;-72.78280098095169
0.44800000000000034;-9978777136.0;-9978475342.0;-24863.0;-39.93279519450117;-15.951515864081681;-36.23588900539568;2026.7560078356387;2083.3333333333335;-56.5773254976949
0.45200000000000035;-9978892945.0;-9978464355.0;-215255.0;-28.952260836442655;6.870757286563515;-64.63720605936193;2745.133589514628;-416.6666666666667;3161.800256181295
0.45600000000000035;-9978967669.0;-9978497314.0;-324803.0;-18.680883150148162;-6.595066472545266;-48.51980051378695;2567.844421573623;750.0;1817.844421573623
0.46000000000000035;-9979012953.0;-9978464355.0;-457538.0;-11.321076660065739;9.370722241595388;-61.767161384159586;1839.951622520606;166.66666666666666;1673.2849558539392
0.46400000000000036;-9979041924.0;-9978431396.0;-553790.0;-7.2428058211019835;10.353244421280921;-59.403663148725414;1019.5677097409388;1666.6666666666667;-647.098956925728
0.46800000000000036;-9979065070.0;-9978436890.0;-587284.0;-5.786538074109786;3.6788341959044337;-48.66310405742449;364.06693674804933;83.33333333333333;280.733603414716
0.47200000000000036;-9979088573.0;-9978442383.0;-608548.0;-5.875686916697501;-6.348152590274811;-36.8540419415107;-22.287210646928735;333.3333333333333;-355.620543980262
0.47600000000000037;-9979114764.0;-9978464355.0;-609898.0;-6.547800749216299;-2.969160734690726;-39.4551362813702;-168.02845812969957;-1333.3333333333333;1165.3048752036336
0.48000000000000037;-9979143591.0;-9978497314.0;-601506.0;-7.20675490040022;-12.87748725386709;-29.354519939114077;-164.73853779598025;-416.6666666666667;251.92812887068644
0.4840000000000004;-9979199999.0;-9978590698.0;-535342.0;-14.102070552524047;-22.756509737066924;-16.169137869916565;-1723.8289130309568;-1750.0;26.171086969043245
0.4880000000000004;-9979199999.0;-9978700562.0;-465225.0;0.0;-31.79389514154941;-6.056383616109979;3525.5176381310116;-1333.3333333333333;4858.850971464345
0.4920000000000004;-9979199999.0;-9978837891.0;-361777.0;0.0;-33.448114951334894;3.2710772681838662;0.0;-2416.6666666666665;2416.6666666666665
0.4960000000000004;-9979267067.0;-9978898315.0;-301684.0;-16.766787372629665;-9.342188759237528;-8.841480560404205;-4191.696843157416;-916.6666666666666;-3275.0301764907495
