Zeit[sec];Sollposition[°];Istposition[°];Positionsschleppfehler[°];Sollgeschwindigkeit[°/s];Istgeschwindigkeit[°/s];Geschwindigkeitsdifferenz[°/s];Sollbeschleunigung[°/s*s];Istbeschleunigung[°/s*s];Beschleunigungsdifferenz[°/s*s]
0.0;0.0;-10986.0;10986.0;2.175455410353606e-23;1.2855504060919067;-0.6263904060919067;2.1070222103590388e-21;0.0;2.1070222103590388e-21
0.004;0.0;-10986.0;10986.0;1.6568037893421502e-23;1.7801788954459636;-1.1210188954459634;-1.2966290525286394e-21;0.0;-1.2966290525286394e-21
0.008;0.0;-10986.0;10986.0;8.067914104622645e-24;0.4315642136323721;0.227595786367628;-2.1250309471997146e-21;0.0;-2.1250309471997146e-21
0.012;0.0;-10986.0;10986.0;1.5127338946167458e-24;1.2141569946104267;-0.5549969946104266;-1.6387950525014747e-21;0.0;-1.6387950525014747e-21
0.016;0.0;-10986.0;10986.0;-1.7288387367048526e-24;0.41803036247994985;0.24112963752005023;-8.1039315783039955e-22;0.0;-8.1039315783039955e-22
0.02;0.0;-16479.0;16479.0;-2.2330833682437676e-24;-1.8099464958815268;2.798686495881527;-1.2606115788472875e-22;0.0;-1.2606115788472875e-22
0.024;0.0;-10986.0;10986.0;-1.5847688419794481e-24;1.0481668855592026;-0.3890068855592025;1.6207863156607988e-22;0.0;1.6207863156607988e-22
0.028;0.0;-16479.0;16479.0;-7.923844209897241e-25;-1.9673307640111248;2.956070764011125;1.9809610524743103e-22;0.0;1.9809610524743103e-22
0.032;0.0;-10986.0;10986.0;-7.203494736270219e-26;0.2893490776518643;0.3698109223481358;1.8008736840675546e-22;0.0;1.8008736840675546e-22
0.036000000000000004;-14349.0;-10986.0;10986.0;-3.587299261105749;0.40467393737810026;0.2544860626218998;-896.8248152764372;0.0;-896.8248152764372
0.04000000000000001;-157348.0;-10986.0;5297.0;-35.749850943383365;1.2307100187762139;-2.3351981242536883;-8040.637920569404;0.0;-8040.637920569404
0.04400000000000001;-860219.0;-10986.0;-59976.0;-175.71776669277585;0.8380399544445233;-20.754829086095267;-34991.978937348125;0.0;-34991.978937348125
0.048000000000000015;-3169442.0;-16479.0;-418708.0;-577.3056262950339;-1.2241677609640895;-114.95480232710646;-100396.96490056452;0.0;-100396.96490056452
0.05200000000000002;-8944516.0;-104370.0;-1667301.0;-1443.768528365785;-23.972320128925002;-410.18669357949574;-216615.72551768777;-750.0;-215865.72551768777
0.05600000000000002;-20773290.0;-758057.0;-4687581.0;-2957.193387850792;-205.55048822307114;-994.1959463953135;-378356.2148712518;-5666.666666666667;-372689.5482045851
0.060000000000000026;-41592364.0;-5811768.0;-7788834.0;-5204.7681275173545;-1419.0350056187042;-1087.0359412026357;-561893.6849166406;-50833.333333333336;-511060.35158330726
0.06400000000000003;-74207032.0;-19467773.0;-9490645.0;-8153.666546782297;-3537.387805887026;-871.504824100206;-737224.6048162356;-193416.66666666666;-543807.9381495689
0.06800000000000003;-120948497.0;-43016968.0;-11384615.0;-11685.365749175899;-6032.469573899597;-1011.3982170782729;-882924.8005984004;-382416.6666666667;-500508.1339317338
0.07200000000000004;-183531464.0;-79255371.0;-13292820.0;-15645.741088666775;-9284.930407255473;-1049.2901888004671;-990093.834872719;-568916.6666666666;-421177.16820605245
0.07600000000000004;-262965424.0;-130819702.0;-14668088.0;-19858.48901075148;-13109.17993817361;-1005.804482231717;-1053186.9805211762;-722666.6666666666;-330520.31385450973
0.08000000000000004;-359419106.0;-200033569.0;-14625522.0;-24113.419463767827;-17530.968838063458;-639.386973268789;-1063732.6132540866;-872083.3333333334;-191649.2799207532
0.08400000000000005;-472145903.0;-286962891.0;-13779477.0;-28181.697705081602;-21868.21879535885;-479.36820686931605;-1017069.5603284439;-1016500.0;-569.560328443913
0.08800000000000005;-599557477.0;-390432129.0;-13116232.0;-31852.89207940131;-26095.609427133953;-392.86147934411565;-917798.593579927;-1068833.3333333333;151034.73975340626
0.09200000000000005;-739384377.0;-510930176.0;-11071917.0;-34956.72339742896;-30238.707370569555;-39.038993697511614;-775957.8295069132;-1083333.3333333333;307375.50382642006
0.09600000000000006;-888895332.0;-646177368.0;-8072738.0;-37377.737004883085;-33896.85100438732;350.48492928941414;-605253.4018635306;-1035583.3333333334;430329.93146980274
0.10000000000000006;-1045231971.0;-792344971.0;-5498865.0;-39084.157744534736;-36626.09024784347;397.7273950256422;-426605.1849129126;-954416.6666666666;527811.4817537541
0.10400000000000006;-1205816421.0;-946983032.0;-3021294.0;-40146.11061565038;-38758.91219394116;537.5140152164313;-265488.21777891135;-795666.6666666666;530178.4488877553
0.10800000000000007;-1368646449.0;-1108020630.0;35469.0;-40707.50516428074;-40238.86912160011;745.790355703044;-140348.6371575891;-626416.6666666666;486068.02950907755
0.11200000000000007;-1532375692.0;-1271057739.0;1622681.0;-40932.308821649305;-40727.31691041915;462.20536813083163;-56200.914342141914;-442250.0;386049.08565785806
0.11600000000000008;-1696241830.0;-1435484619.0;2876166.0;-40966.53254351933;-41068.8450170612;448.06809637436527;-8555.930467506187;-272916.6666666667;264360.7361991605
0.12000000000000008;-1859922232.0;-1599949951.0;3563247.0;-40920.098532829994;-41042.57050316787;311.80453947266506;11608.502672333998;-130916.66666666667;142525.16933900065
0.12400000000000008;-2023363637.0;-1764146118.0;3967719.0;-40860.3491800663;-41012.69970324534;302.84118905325886;14937.338190922674;-39333.333333333336;54270.67152425601
0.12800000000000009;-2186632407.0;-1927413940.0;3648810.0;-40817.19072510858;-40756.24649754907;78.49417522484146;10789.613739430933;-833.3333333333334;11622.947072764267
0.1320000000000001;-2349816220.0;-2090247803.0;3108314.0;-40795.95115258986;-40749.790826420365;92.70204553009535;5309.89312967904;37916.666666666664;-32606.773536987625
0.1360000000000001;-2512978649.0;-2253306885.0;2931299.0;-40790.60541217659;-40752.85992421324;119.71541616800096;1336.4351033178536;24833.333333333332;-23496.89823001548
0.1400000000000001;-2676150528.0;-2415882568.0;2331150.0;-40792.96780602363;-40724.03388052208;69.94677985866292;-590.5984617602371;24166.666666666668;-24757.265128426905
0.1440000000000001;-2839338821.0;-2578837280.0;2119560.0;-40797.07143129679;-40759.87479046488;95.47500334260258;-1025.9063182893442;-1750.0;724.0936817106558
0.1480000000000001;-3002539024.0;-2741369019.0;1472968.0;-40800.048796472234;-40681.7108698237;-24.49203735014453;-744.3412938609981;6416.666666666667;-7161.007960527665
0.1520000000000001;-3165744253.0;-2904570923.0;1481953.0;-40801.305284657305;-40795.209731003706;85.89904561553703;-314.12204626758466;-5250.0;4935.877953732415
0.1560000000000001;-3328949595.0;-3067371826.0;1080730.0;-40801.33342653581;-40678.701395676464;-56.98433322941128;-7.035469627226121;-4750.0;4742.964530372774
0.16000000000000011;-3492152954.0;-3230480347.0;984007.0;-40800.83788608644;-40752.8971595754;10.628499338447;123.88511234348698;-3166.6666666666665;3290.5517790101535
0.16400000000000012;-3655354232.0;-3393435059.0;734164.0;-40800.31749917664;-40683.77081553292;-73.31613206373004;130.09672744919953;-4333.333333333333;4463.430060782533
0.16800000000000012;-3818554186.0;-3556620483.0;717042.0;-40799.98674324629;-40779.38134848243;21.769404117381782;82.68898258756963;3250.0;-3167.3110174124304
0.17200000000000013;-3981753632.0;-3719750977.0;646771.0;-40799.85950540719;-40733.266194501106;-28.116954259246995;31.809459775104187;-7500.0;7531.809459775104
0.17600000000000013;-4144953091.0;-3882733154.0;429187.0;-40799.86277473278;-40786.837965968516;12.650952514282835;-0.817331396319787;5583.333333333333;-5584.150664729653
0.18000000000000013;-4308152766.0;-4046061401.0;557980.0;-40799.91679615972;-40831.60916540232;65.22641822437436;-13.505356735549867;-6500.0;6486.49464326445
0.18400000000000014;-4471352654.0;-4208961182.0;258217.0;-40799.97003895219;-40786.038082386745;1.646928158501396;-13.310698117493303;4583.333333333333;-4596.644031450826
0.18800000000000014;-4634552671.0;-4372272949.0;370226.0;-40800.002267078395;-40848.20259198802;70.47856242482521;-8.057031551288674;-6500.0;6491.942968448711
0.19200000000000014;-4797752733.0;-4535112305.0;9644.0;-40800.01359956741;-40741.45885909842;-57.94500583274203;-2.833122254742193;3083.3333333333335;-3086.1664555880757
0.19600000000000015;-4960952790.0;-4698418579.0;115884.0;-40800.0122210851;-40813.25554335835;20.202011961831886;0.3446205791988177;-1750.0;1750.3446205791988
0.20000000000000015;-5124152823.0;-4861318359.0;-184396.0;-40800.006339783155;-40692.967326660364;-118.10941995905159;1.4703254855703562;-250.0;251.47032548557036
0.20400000000000015;-5287352834.0;-5024750977.0;48174.0;-40800.00097357473;-40820.45884012649;23.339382808648224;1.3415521061688196;-166.66666666666666;168.00821877283548
0.20800000000000016;-5450552834.0;-5187810059.0;-92768.0;-40799.99791413092;-40707.91798816002;-97.65233846603951;0.7648609516763827;-4416.666666666667;4417.431527618343
0.21200000000000016;-5613752829.0;-5351017456.0;-85377.0;-40799.99697100867;-40790.37326833358;-14.749143662134884;0.23578056243422907;4083.3333333333335;-4083.0975527708993
0.21600000000000016;-5776952826.0;-5514312744.0;9912.0;-40799.99724022933;-40786.78431814638;-12.61851997771737;-0.06730516361130867;-4583.333333333333;4583.266028169722
0.22000000000000017;-5940152825.0;-5677454224.0;-48604.0;-40799.99788753575;-40841.21421320044;38.30088992387755;-0.16182660510821734;6333.333333333333;-6333.495159938441
0.22400000000000017;-6103352827.0;-5840853882.0;151056.0;-40799.99843269912;-40868.37280885521;77.43867355646216;-0.13629084241983946;-7916.666666666667;7916.530375824247
0.22800000000000017;-6266552829.0;-6003825073.0;-77753.0;-40799.998724259756;-40817.97901289445;13.315733002767956;-0.07289015957212541;4666.666666666667;-4666.739556826239
0.23200000000000018;-6429752832.0;-6167153320.0;50492.0;-40799.99880092652;-40849.125541104804;52.15651600088313;-0.01916669134516269;-4666.666666666667;4666.647499975322
0.23600000000000018;-6592952835.0;-6330075073.0;-227757.0;-40799.99876205558;-40761.7629370097;-51.901235938807076;0.00971773624769412;4666.666666666667;-4666.656948930419
0.24000000000000019;-6756148140.0;-6493513184.0;10351.0;-40798.82437442909;-40847.88390171308;48.50617664755555;293.5969066220423;-2250.0;2543.5969066220423
0.2440000000000002;-6919308377.0;-6656544800.0;-156173.0;-40790.057246235876;-40724.896845721836;-84.00667021742265;2191.782048303139;-1500.0;3691.782048303139
0.2480000000000002;-7082341463.0;-6819873047.0;-9355.0;-40758.26946520046;-40794.03169527907;-1.8848309852546663;7946.945258854612;166.66666666666666;7780.278592187945
0.25200000000000017;-7245038438.0;-6982998047.0;5616.0;-40674.24197501567;-40730.3782939128;-46.79000371834263;21006.872546196973;-1333.3333333333333;22340.205879530306
0.25600000000000017;-7406946717.0;-7146123047.0;230048.0;-40477.0677995158;-40778.89105230154;67.55379750028806;49293.543874968236;7083.333333333333;42210.2105416349
0.2600000000000002;-7567172067.0;-7308869019.0;589781.0;-40056.33545084556;-40664.971073449415;103.80008959762927;105183.08716755928;2333.3333333333335;102849.75383422595
0.2640000000000002;-7724237453.0;-7470648193.0;1123310.0;-39266.34472101214;-40485.06333950396;241.0526248583992;197497.6824583555;23666.666666666668;173831.0157916888
0.2680000000000002;-7876083976.0;-7630768433.0;2261215.0;-37961.62886759414;-40001.75199707908;391.8431984018389;326178.9633544995;38333.333333333336;287845.6300211662
0.2720000000000002;-8020168343.0;-7787010498.0;3488576.0;-36021.090186884474;-39030.50134905823;486.1417858085406;485134.6701774164;98833.33333333333;386301.3368440831
0.2760000000000002;-8153644160.0;-7937819824.0;5498374.0;-33368.95269279711;-37582.331389548424;712.3534084851417;663034.3735218411;175333.33333333334;487701.0401885079
0.2800000000000002;-8273710698.0;-8079971924.0;7726749.0;-30016.63299557654;-35341.65265533527;824.3281413757577;838079.9243051424;301333.3333333333;536746.5909718091
0.2840000000000002;-8378086558.0;-8210802612.0;10336031.0;-26093.963713793797;-32475.867307757937;1040.6789867841799;980667.3204456856;453416.6666666667;527250.6537790189
0.2880000000000002;-8465372229.0;-8325999756.0;11609175.0;-21821.41673068801;-28594.709157745507;810.2612424624058;1068136.7457764463;640166.6666666666;427970.0791097797
0.2920000000000002;-8535188014.0;-8424124146.0;12041761.0;-17453.945396739313;-24320.549894319913;620.1055704580613;1091867.8334871747;836750.0;255117.8334871747
0.2960000000000002;-8588164279.0;-8505054932.0;12513275.0;-13244.065694527786;-20044.704792871937;680.6842493759141;1052469.9255528818;985750.0;66719.9255528817
0.3000000000000002;-8625820484.0;-8567539673.0;11756475.0;-9414.050660719997;-15385.070343360074;280.0743168300287;957503.7584519474;1070250.0;-112746.2415480527
0.3040000000000002;-8650355221.0;-8612336426.0;9552458.0;-6133.6840935245355;-11073.039052627362;-104.00530886070374;820091.6417988653;1113500.0;-293408.35820113466
0.3080000000000002;-8664432506.0;-8643284912.0;7957430.0;-3519.3210394158773;-7657.883569749952;-0.548697143287427;653590.7635271646;1080416.6666666667;-426825.9031395022
0.3120000000000002;-8670974113.0;-8662263794.0;6470908.0;-1635.4017568511795;-4623.3214952154685;-104.77491463243678;470979.82064117445;976333.3333333334;-505353.5126921589
0.3160000000000002;-8672847135.0;-8670745239.0;3801572.0;-468.25537176459795;-2073.9611661711856;-485.6395274667443;291786.5962716454;828166.6666666666;-536380.0703950212
0.32000000000000023;-8672444346.0;-8672673340.0;994933.0;100.69724243479111;-499.1880111454278;-624.8010502274557;142238.15354984725;679250.0;-537011.8464501527
0.32400000000000023;-8671379308.0;-8672557983.0;-118477.0;266.25951300480705;-37.28273203003407;-219.33918643925483;41390.567642503986;505500.0;-464109.432357496
0.32800000000000024;-8670473320.0;-8672305298.0;280864.0;226.4970003909546;73.07570269852877;106.78252638288075;-9940.628153463109;280000.0;-289940.6281534631
0.33200000000000024;-8669970029.0;-8671448364.0;422027.0;125.82276653155908;227.54884953173996;47.296977081863304;-25168.55846484888;109750.0;-134918.55846484887
0.33600000000000024;-8669808133.0;-8670327759.0;48678.0;40.473946865929186;261.81233305475115;-72.07742988187167;-21337.204916407474;32916.666666666664;-54253.871583074135
0.34000000000000025;-8669834037.0;-8669866333.0;-42455.0;-6.476100853756325;103.6266920877546;-13.600810889306473;-11737.511929921378;14250.0;-25987.511929921377
0.34400000000000025;-8669917465.0;-8669838867.0;19515.0;-20.856807308453636;15.695863702885807;7.834113576906779;-3595.1766136743277;-7500.0;3904.8233863256723
0.34800000000000025;-8669987124.0;-8669816895.0;-50068.0;-17.414828668271536;3.7808120625019073;-18.687620391109288;860.494660045525;-22083.333333333332;22943.827993378858
0.35200000000000026;-8670021906.0;-8669800415.0;-144180.0;-8.695502612164253;5.0293357467651365;-33.08799035333467;2179.8315140268205;-16666.666666666668;18846.49818069349
0.35600000000000026;-8670028110.0;-8669805908.0;-194598.0;-1.5510629112795662;0.550556592643261;-26.20435656276484;1786.1099252211716;-3750.0;5536.109925221172
0.36000000000000026;-8670005632.0;-8669805908.0;-218254.0;5.619556203395023;-0.2565092602446675;-18.75266444354515;1792.6547786686472;-500.0;2292.6547786686474
0.36400000000000027;-8669851706.0;-8669794922.0;-224239.0;38.48138569113814;4.3263519102633;-16.530578334898202;8215.457371935778;-250.0;8465.457371935778
0.36800000000000027;-8669140842.0;-8669794922.0;-149811.0;177.71608005570738;2.4633817034438255;7.15470107928855;34808.67359114231;83.33333333333333;34725.34025780898
0.3720000000000003;-8666827520.0;-8669761963.0;191202.0;578.3304159515332;8.625386715985835;96.33994996638619;100153.58397395644;333.3333333333333;99820.25064062311
0.3760000000000003;-8661050679.0;-8669498291.0;1270481.0;1444.2101796642899;84.5507763876021;327.41565996454244;216469.94092818917;2166.6666666666665;214303.2742615225
0.3800000000000003;-8649220252.0;-8667641602.0;3090956.0;2957.6067370189903;521.8146504288093;582.9335728391586;378349.13933867513;19083.333333333332;359265.80600534176
0.3840000000000003;-8628397800.0;-8661846313.0;5452366.0;5205.612625618072;1557.302241130814;809.0144724628592;562001.4721497705;75500.0;486501.47214977053
0.3880000000000003;-8595776966.0;-8648904419.0;7870626.0;8155.20815231957;3377.0637977222277;935.2121510810312;737398.8816753745;189833.33333333334;547565.5483420411
0.3920000000000003;-8549026304.0;-8625953979.0;10367824.0;11687.66494462312;5906.732012704521;1077.2466823170944;883114.1980758875;353333.3333333333;529780.8647425543
0.3960000000000003;-8486431563.0;-8589885864.0;12453668.0;15648.684429418194;9238.986941569701;1046.7224279716174;990254.8711987684;536666.6666666666;453588.2045321017
0.4000000000000003;-8406984189.0;-8538013916.0;13531520.0;19861.842595687936;13174.086958262544;875.253532134906;1053289.5415674357;726916.6666666666;326372.87490076903
0.4040000000000003;-8310516654.0;-8468865967.0;13567281.0;24116.882740135316;17477.214517188713;632.7490560154256;1063760.0361118447;892166.6666666666;171593.36944517816
0.4080000000000003;-8197776845.0;-8382672729.0;13470899.0;28184.95073242835;21762.13596552148;570.3310288070243;1017016.9980732589;1010500.0;6516.9980732589465
0.4120000000000003;-8070354230.0;-8278253174.0;11870854.0;31855.65229337956;26293.287840643454;123.83965902735508;917675.3902378023;1071833.3333333333;-154157.94309553097
0.4160000000000003;-7930518970.0;-8158348389.0;10432036.0;34958.8133836566;30125.169950826745;117.24241991456438;775790.2725692593;1082750.0;-306959.7274307407
0.4200000000000003;-7781002460.0;-8024067993.0;8409643.0;37379.12581245421;33677.254879679866;-108.17713785614615;605078.1071994024;1032333.3333333334;-427255.22613393096
0.4240000000000003;-7624662677.0;-7877005005.0;4947649.0;39084.943734167384;36812.972969795264;-615.8671700154227;426454.4804282941;947916.6666666666;-521462.1862383725
0.4280000000000003;-7464076825.0;-7722235107.0;2342856.0;40146.46107562805;38711.80904657385;-529.9632397028618;265379.33536516724;807000.0;-541620.6646348328
0.43200000000000033;-7301246444.0;-7562010498.0;101550.0;40707.59346631609;40159.44652141554;-657.5297744524869;140283.0976720088;626750.0;-486466.9023279912
0.43600000000000033;-7137517338.0;-7398121948.0;-2336107.0;40932.2745356802;40944.226859854025;-721.6718071843861;56170.267341027284;447500.0;-391329.73265897273
0.44000000000000034;-6973651465.0;-7234019165.0;-3265330.0;40966.466213095504;41064.13391110164;-466.6655965260725;8547.919353826728;263583.3333333333;-255035.4139795066
0.44400000000000034;-6809971279.0;-7069537354.0;-3969075.0;40920.04464038436;41089.4024534604;-383.0324425707149;-11605.393177786027;143666.66666666666;-155272.05984445268
0.44800000000000034;-6646529992.0;-6905939941.0;-3775038.0;40860.31979206809;40883.56261948572;-162.20445649289468;-14931.212079067336;31833.333333333332;-46764.545412400665
0.45200000000000035;-6483261259.0;-6742227173.0;-3901252.0;40817.181309993386;40868.9148584929;-206.35330586259806;-10784.620518676093;-8333.333333333334;-2451.2871853427587
0.45600000000000035;-6320077441.0;-6579651489.0;-3102664.0;40795.952520373154;40597.08037213313;60.32579611430265;-5307.197405058105;-26500.0;21192.802594941895
0.46000000000000035;-6156914993.0;-6416669312.0;-2848765.0;40790.61003311955;40744.22170056709;-106.13040941490908;-1335.6218134013034;-31000.0;29664.378186598697
0.46400000000000036;-5993743099.0;-6253956299.0;-2385935.0;40792.971637626295;40647.064837685735;3.737757406939636;590.4011266866291;-14750.0;15340.40112668663
0.46800000000000036;-5830554798.0;-6091083984.0;-2091932.0;40797.07330653255;40764.80690040385;-98.74514436112804;1025.4172265631496;-11833.333333333334;12858.750559896484
0.47200000000000036;-5667354594.0;-5928239136.0;-1758436.0;40800.04908870716;40710.49790276878;-21.420015036135737;743.945543652444;8583.333333333334;-7839.38778968089
0.47600000000000037;-5504149367.0;-5765471191.0;-1333457.0;40801.30479916144;40764.012098529376;-45.79039407736127;313.927613569831;-6250.0;6563.927613569831
