Zeit[sec];Sollposition[°];Istposition[°];Positionsschleppfehler[°];Sollgeschwindigkeit[°/s];Istgeschwindigkeit[°/s];Geschwindigkeitsdifferenz[°/s];Sollbeschleunigung[°/s*s];Istbeschleunigung[°/s*s];Beschleunigungsdifferenz[°/s*s]
0.0;9817499999.0;9817492676.0;7323.0;0.0;-3.206028595328331;3.645408595333829;0.0;0.0;0.0
0.004;9817499999.0;9817492676.0;7323.0;0.0;-1.3369674479439855;1.7763474479494834;0.0;0.0;0.0
0.008;9817499999.0;9817503662.0;-3663.0;0.0;3.366448099821806;-3.5862280998721423;0.0;0.0;0.0
0.012;9817499999.0;9817498169.0;1830.0;0.0;1.223989608451724;-1.1141896084400795;0.0;0.0;0.0
0.016;9817499999.0;9817492676.0;7323.0;0.0;-2.8770642343834045;3.3164442343889027;0.0;0.0;0.0
0.02;9817499999.0;9817492676.0;7323.0;0.0;-5.151362863987685;5.590742863993182;0.0;83.33333333333333;-83.33333333333333
0.024;9817499999.0;9817498169.0;1830.0;0.0;1.1403722793757916;-1.030572279364147;0.0;-83.33333333333333;83.33333333333333
0.028;9817499999.0;9817503662.0;-3663.0;0.0;3.0275397334471346;-3.247319733497471;0.0;0.0;0.0
0.032;9817499999.0;9817503662.0;-3663.0;0.0;3.922321627959609;-4.142101628009945;0.0;-83.33333333333333;83.33333333333333
0.036000000000000004;9817499999.0;9817514648.0;-14649.0;0.0;6.430497397258878;-7.309437397296921;0.0;166.66666666666666;-166.66666666666666
0.04000000000000001;9817499999.0;9817492676.0;7323.0;0.0;-4.2197469515427946;4.659126951548292;0.0;0.0;0.0
0.04400000000000001;9817496032.0;9817492676.0;7323.0;-0.9918202343272223;-1.2148273173421622;1.6542073173476601;-247.9550585818056;-83.33333333333333;-164.62172524847225
0.048000000000000015;9817456496.0;9817492676.0;5749.0;-9.88415600202253;-2.018491552658379;1.9701903268561745;-2223.083941923827;0.0;-2223.083941923827
0.05200000000000002;9817262165.0;9817492676.0;-12297.0;-48.58263104615574;-1.9975540617853405;-3.2519469149541296;-9674.618761033302;0.0;-9674.618761033302
0.05600000000000002;9816620629.0;9817476196.0;-96518.0;-160.38388456132918;-7.710730664089322;-23.255742499343203;-27950.313378793362;0.0;-27950.313378793362
0.060000000000000026;9815071476.0;9817267456.0;-258512.0;-387.28828902529244;-59.38767182567716;-48.806380467439155;-56726.101115990816;-2083.3333333333335;-54642.76778265748
0.06400000000000003;9811792618.0;9816520386.0;-510214.0;-819.7145796826501;-202.32012862493843;-77.98556145525629;-108106.57266433942;-9416.666666666666;-98689.90599767274
0.06800000000000003;9805833453.0;9814548340.0;-767804.0;-1489.7911592791193;-523.3263954416365;-80.15088317356333;-167519.1448991173;-26916.666666666668;-140602.47823245064
0.07200000000000004;9796227264.0;9810807495.0;-1358382.0;-2401.547110660706;-972.2972193854525;-192.06142636388245;-227938.98784539668;-57333.333333333336;-170605.65451206337
0.07600000000000004;9782082675.0;9803957520.0;-1897855.0;-3536.147135573976;-1777.36630949907;-183.86690835756508;-283650.00622831745;-98750.0;-184900.00622831748
0.08000000000000004;9762623469.0;9792745972.0;-2070531.0;-4864.801215560272;-2859.1499768234416;-111.13785556231323;-332163.519996574;-161333.33333333334;-170830.18666324066
0.08400000000000005;9737218280.0;9776683960.0;-2233679.0;-6351.297059556827;-4098.101881035216;-92.20853001230353;-371623.9609991387;-224500.0;-147123.9609991387
0.08800000000000005;9705434998.0;9754991455.0;-2326729.0;-7945.82009738598;-5506.630478453502;-79.36177025392044;-398630.75945728837;-286083.3333333333;-112547.42612395507
0.09200000000000005;9667078461.0;9727311401.0;-2545838.0;-9589.13372557451;-6993.060004469395;-134.48086857841008;-410828.40704713226;-328083.3333333333;-82745.07371379895
0.09600000000000006;9622204904.0;9693072510.0;-2659050.0;-11218.388724103295;-8634.787302796125;-112.78106296633814;-407313.7496321965;-362166.6666666667;-45147.082965529815
0.10000000000000006;9571149240.0;9652395630.0;-2884089.0;-12763.915283947768;-10254.630530838087;-143.89389375353676;-386381.6399611182;-388000.0;1618.3600388817467
0.10400000000000006;9514527011.0;9605110474.0;-2885413.0;-14155.556682841621;-11880.691555630714;-114.05266459139784;-347910.34972346324;-402750.0;54839.65027653676
0.10800000000000007;9453156414.0;9551623535.0;-2624971.0;-15342.648577441982;-13432.856721333623;-31.26507319207667;-296772.9736500901;-406166.6666666667;109393.69301657661
0.11200000000000007;9387921387.0;9493082886.0;-2556588.0;-16308.755792355316;-14672.852399985217;-98.60880193302364;-241526.80372833356;-389000.0;147473.19627166644
0.11600000000000008;9319653140.0;9429955444.0;-2304107.0;-17067.061099470506;-15833.733127400325;-23.252668759729204;-189576.32677879746;-349250.0;159673.67322120254
0.12000000000000008;9249073534.0;9363235474.0;-1999145.0;-17644.900613429327;-16670.985948690228;-52.713964953491086;-144459.87848970527;-305666.6666666667;161206.78817696142
0.12400000000000008;9176784348.0;9294180908.0;-2111471.0;-18072.295753969127;-17292.108699834287;-126.30180301961082;-106848.78513495004;-243666.66666666666;136817.88153171662
0.12800000000000009;9103285155.0;9222379761.0;-1554208.0;-18374.79713962478;-17979.80253045536;75.57972025315394;-75625.34641391358;-199083.33333333334;123457.98691941977
0.1320000000000001;9028992400.0;9149968872.0;-1902237.0;-18573.187861515562;-18087.231527468743;-216.631250927192;-49597.680472695174;-149500.0;99902.31952730482
0.1360000000000001;8954234309.0;9075981445.0;-1721548.0;-18689.521973877414;-18542.296697778784;-12.679674164159223;-29083.528090463005;-106166.66666666667;77083.13857620367
0.1400000000000001;8879244110.0;9001230469.0;-1443176.0;-18747.548792785892;-18610.441580472216;-94.29905323830098;-14506.70472711954;-88833.33333333333;74326.62860621378
0.1440000000000001;8804170674.0;8926627808.0;-1687906.0;-18768.358112241058;-18714.935940721287;-98.18547499461056;-5202.3298637914195;-43000.0;37797.67013620858
0.1480000000000001;8729095052.0;8851168213.0;-1250153.0;-18768.904573949396;-18796.942094100395;-33.52644781177878;-136.61542708450725;-46916.666666666664;46780.05123958216
0.1520000000000001;8654048836.0;8776889648.0;-2045403.0;-18761.553226823955;-18643.63725945372;-247.53976671011696;1837.836781360238;416.6666666666667;1421.1701146935713
0.1560000000000001;8579034433.0;8701034546.0;-1254251.0;-18753.599820734773;-18939.238570905232;97.99683315035509;1988.3515222954884;-14916.666666666666;16905.018188962153
0.16000000000000011;8504042245.0;8625981445.0;-1234925.0;-18748.046170575726;-18765.846199851625;-66.6922000295308;1388.4125397617026;-5416.666666666667;6805.07920642837
0.16400000000000012;8429061503.0;8550444946.0;-704207.0;-18745.184491089378;-18895.3218459019;101.62493869064201;715.4198715870734;-10666.666666666666;11382.08653825374
0.16800000000000012;8354084925.0;8475260010.0;-507051.0;-18744.143646800163;-18768.186473060337;-9.18068723169199;260.21107230371854;-7500.0;7760.2110723037185
0.17200000000000013;8279109250.0;8400382690.0;-608889.0;-18743.91778629435;-18718.001668603312;-63.32025164179504;56.465126453076664;11750.0;-11693.534873546923
0.17600000000000013;8204133957.0;8325554810.0;-757254.0;-18743.822473916975;-18731.766507583878;-57.72892775189757;23.828094344025885;8750.0;-8726.171905655974
0.18000000000000013;8129159735.0;8250540161.0;-718134.0;-18743.554579098985;-18725.2976637508;-61.671696076609805;66.97370449728623;9500.0;-9433.026295502714
0.18400000000000014;8054187443.0;8175552979.0;-705822.0;-18743.072229089954;-18794.86801383654;8.801877558005799;120.58750225787662;2500.0;-2379.4124977421234
0.18800000000000014;7979217597.0;8100049438.0;-175744.0;-18742.4605792199;-18830.108240328605;76.1986957752888;152.91246751348808;-13166.666666666666;13319.579134180154
0.19200000000000014;7904251913.0;8025402832.0;-500472.0;-18741.42000302537;-18679.200857191045;-93.66000855200036;260.1440486323554;416.6666666666667;-156.52261803431128
0.19600000000000015;7829297644.0;7950113525.0;-179375.0;-18738.566326118183;-18822.118545872934;69.30445496918037;713.4192267967592;-1583.3333333333333;2296.752560130092
0.20000000000000015;7754370303.0;7875818481.0;-845513.0;-18731.834485012165;-18568.036398803484;-222.98904304302778;1682.960276504673;10416.666666666666;-8733.706390161993
0.20400000000000015;7679505284.0;7800803833.0;-774525.0;-18716.253884899885;-18785.159231276077;2.7737542082977598;3895.15002807002;11833.333333333334;-7938.183305263314
0.20800000000000016;7604787794.0;7725739746.0;-613227.0;-18679.371562637698;-18700.828954087956;-61.66113080802461;9220.580565546697;-8416.666666666666;17637.24723221336
0.21200000000000016;7530373242.0;7650917358.0;-597730.0;-18603.63699566875;-18765.588560451462;28.002847463405487;18933.64174223734;5333.333333333333;13600.30840890401
0.21600000000000016;7456494047.0;7575913696.0;-192312.0;-18469.798053366427;-18687.739482375342;26.640664831193135;33459.73557558045;-15083.333333333334;48543.06890891379
0.22000000000000017;7383474515.0;7502069092.0;-551775.0;-18254.881975341457;-18522.61369688874;-61.50850661897857;53729.019506242366;23000.0;30729.019506242366
0.22400000000000017;7311735215.0;7427938843.0;36985.0;-17934.824227191282;-18506.757619611733;123.60532056602824;80014.43703754376;11750.0;68264.43703754376
0.22800000000000017;7241775011.0;7355335693.0;123158.0;-17490.05021858194;-18109.18220705368;-12.671665943231346;111193.50215233589;34833.333333333336;76360.16881900256
0.23200000000000018;7174148244.0;7284001465.0;415969.0;-16906.690819828586;-17824.18412770645;88.78864696680466;145839.8496883383;49500.0;96339.84968833829
0.23600000000000018;7109445092.0;7214820557.0;551420.0;-16175.787403777793;-17229.69347924897;1.415249575402413;182725.85401269817;76833.33333333333;105892.52067936484
0.24000000000000019;7048264127.0;7148364258.0;526447.0;-15295.24032005716;-16590.53687131874;1.8065341113324394;220136.77093015803;120583.33333333333;99553.4375968247
0.2440000000000002;6991171890.0;7084764404.0;802510.0;-14273.058720644713;-15853.03534149982;70.23906066560266;255545.39985311203;141333.33333333334;114212.06651977869
0.2480000000000002;6938677694.0;7024855957.0;1130471.0;-13123.54840466344;-14900.350545069725;73.058062023405;287377.5789953183;179083.33333333334;108294.245661985
0.25200000000000017;6891218207.0;6969759521.0;933764.0;-11864.871168981002;-13734.547865799937;-32.71148096604156;314669.3089206092;214916.66666666666;99752.64225394253
0.25600000000000017;6849123754.0;6918837891.0;1330440.0;-10523.61263548945;-12673.93856707745;122.5270075226017;335314.63337288826;252000.0;83314.63337288823
0.2600000000000002;6812604015.0;6873239136.0;1567360.0;-9129.934448268115;-11297.597102450754;51.180522906724946;348419.5468053335;280500.0;67919.54680533354
0.2640000000000002;6781739771.0;6833441162.0;1449732.0;-7716.060571480091;-9926.831446080056;34.91541888248685;353468.469197006;311166.6666666667;42301.80253033933
0.2680000000000002;6756432074.0;6798713379.0;1867427.0;-6326.923933060764;-8617.366762247655;151.89075121840142;347284.1596048318;327750.0;19534.15960483176
0.2720000000000002;6736373000.0;6770006104.0;1880405.0;-5014.768312386933;-7132.469611887105;71.71989503344321;328038.9051684579;347833.3333333333;-19794.428164875455
0.2760000000000002;6721079404.0;6746544800.0;2082451.0;-3823.398695969609;-5826.265380891349;136.39823650556536;297842.404104331;344333.3333333333;-46490.929229002344
0.2800000000000002;6709947976.0;6728164673.0;2262188.0;-2782.856981740924;-4537.438415912971;123.07240944536625;260135.42855717128;340750.0;-80614.57144282872
0.2840000000000002;6702306639.0;6714223022.0;2532555.0;-1910.3340929633164;-3445.3188548151293;179.45130872669506;218130.72219440187;326000.0;-107869.27780559813
0.2880000000000002;6697462751.0;6704478149.0;2505379.0;-1210.9720916624444;-2410.9467388405687;118.25726522304922;174840.500325218;295416.6666666667;-120576.1663414487
0.2920000000000002;6694744423.0;6698122559.0;2308327.0;-679.5819111007789;-1573.859560136933;74.19875435669519;132847.54514041636;269833.3333333333;-136985.78819291695
0.2960000000000002;6693514479.0;6694140015.0;2273343.0;-307.4859780022924;-976.8307861412466;108.84935387357314;93023.98327462163;227500.0;-134476.01672537837
0.3000000000000002;6693227885.0;6692222900.0;2049796.0;-71.64850769430136;-469.01236410953476;56.83482214407985;58959.36757699777;184833.33333333334;-125873.96575633557
0.3040000000000002;6693406100.0;6691580200.0;1827855.0;44.55379879856192;-170.76520434416457;64.27614875052278;29050.57662321582;140666.66666666666;-111616.09004345084
0.3080000000000002;6693533426.0;6691657104.0;1643120.0;31.831452558679125;27.27463859384507;44.35459239767472;-3180.586559970699;100000.0;-103180.5865599707
0.3120000000000002;6693719014.0;6692140503.0;1315035.0;46.39712799768529;112.28740760115907;5.443406810385582;3641.418859751541;67083.33333333333;-63441.91447358179
0.3160000000000002;6693748748.0;6692486572.0;1119691.0;7.433401927943025;78.90999426971004;25.95252600942429;-9740.931517435565;33500.0;-43240.931517435565
0.32000000000000023;6693778249.0;6692788696.0;941020.0;7.375198140205965;82.52374046974629;4.8007331949662415;-14.550946934264841;11583.333333333334;-11597.884280267599
0.32400000000000023;6693776604.0;6692947998.0;812272.0;-0.4111418135299597;25.5622479223907;30.81270019559356;-1946.5849884339812;-1166.6666666666667;-779.9183217673145
0.32800000000000024;6693764141.0;6692931519.0;845904.0;-3.115851523265662;13.2745683157295;41.76804873225001;-676.1774274339256;-9250.0;8573.822572566074
0.33200000000000024;6693752868.0;6692887573.0;884098.0;-2.8181207443580942;-20.630369464095683;72.23835559741674;74.43269472689195;-5250.0;5324.432694726892
0.33600000000000024;6693746850.0;6692816162.0;943581.0;-1.5046760259739507;-8.31233689790219;61.94523888486473;328.36117959603587;-8166.666666666667;8495.027846262703
0.34000000000000025;6693745482.0;6692799683.0;950864.0;-0.34196997559812675;-11.793071031946688;66.54580607953632;290.676512593956;0.0;290.676512593956
0.34400000000000025;6693746607.0;6692788696.0;957646.0;0.28141131332561553;-2.5813303587064147;58.98871314927571;155.84532223093558;-1250.0;1405.8453222309356
0.34800000000000025;6693748334.0;6692788696.0;957240.0;0.4317215191086002;-0.28768969037011266;57.620467924682174;37.57755144574616;2250.0;-2212.422448554254
0.35200000000000026;6693749629.0;6692821655.0;925630.0;0.32374475906695943;7.790630490854383;48.0845238457391;-26.994190010410186;333.3333333333333;-360.3275233437435
0.35600000000000026;6693750199.0;6692860107.0;888730.0;0.14243122916766074;11.74193108952418;41.969898607574486;-45.32838247482467;1333.3333333333333;-1378.6617158081579
0.36000000000000026;6693750154.0;6692909546.0;840301.0;-0.01133227558879399;12.489120233248919;38.18142922051462;-38.44087618911368;916.6666666666666;-955.1075428557804
0.36400000000000027;6693749741.0;6692931519.0;818658.0;-0.10325825176410999;9.491651626951993;39.71035715910937;-22.981494043829002;333.3333333333333;-356.3148273771623
0.36800000000000027;6693749212.0;6692964478.0;785512.0;-0.13202211071209488;5.8055059551075106;41.27833551418499;-7.190964736996222;83.33333333333333;-90.52429807032955
0.3720000000000003;6693748773.0;6693041382.0;708151.0;-0.10979886662809758;17.99860838288814;24.376327573431876;5.555811020999324;0.0;5.555811020999324
0.3760000000000003;6693748547.0;6693140259.0;608781.0;-0.056665330757018795;24.266033914182337;12.137783682404972;13.283383967769698;1166.6666666666667;-1153.3832826988971
0.3800000000000003;6693802713.0;6693228149.0;520536.0;13.541574756614251;22.768506582446395;8.374790953333871;3399.5600218428176;1166.6666666666667;2232.8933551761506
0.3840000000000003;6693815907.0;6693327026.0;442998.0;3.298610769628465;24.184896768525242;7.729496293521855;-2560.7409967464464;1083.3333333333333;-3644.07433007978
0.3880000000000003;6693830988.0;6693381958.0;425669.0;3.7701092261687066;11.18089562093839;23.759966773164475;117.8746141350604;-83.33333333333333;201.2079474683937
0.3920000000000003;6693848065.0;6693409424.0;412385.0;4.26926730083548;5.589054602354765;22.699615305205032;124.78951866669341;-1166.6666666666667;1291.45618533336
0.3960000000000003;6693867049.0;6693414917.0;422753.0;4.746094719933188;2.668570004872978;26.661864912323324;119.20685477442694;-1833.3333333333333;1952.5401881077603
0.4000000000000003;6693887809.0;6693414917.0;440575.0;5.189977783015406;1.7622601933330297;29.127636974401224;110.97076577055454;-1666.6666666666667;1777.6374324372214
0.4040000000000003;6693910355.0;6693425903.0;449266.0;5.6365244584671474;6.160898706428707;25.71435480162325;111.63666886293532;-750.0;861.6366688629354
0.4080000000000003;6693934723.0;6693453369.0;443257.0;6.0919752967978775;6.762327931057662;25.19751775415302;113.86270958268253;333.3333333333333;-219.4706237506508
0.4120000000000003;6693960900.0;6693519287.0;400597.0;6.544209565515835;24.31284301934019;5.537464095647852;113.05856717948947;500.0;-386.9414328205105
0.4160000000000003;6693988768.0;6693480835.0;464124.0;6.966936469176717;-10.183347184594721;44.29939764554413;105.6817259152203;833.3333333333334;-727.651607418113
0.4200000000000003;6694018054.0;6693480835.0;490961.0;7.321481985523156;-2.47588688807562;38.64271125560008;88.63637908660982;-1000.0;1088.6363790866098
0.4240000000000003;6694048401.0;6693497314.0;502902.0;7.586769435772211;4.67651086934656;32.6026404417653;66.32186256226369;-500.0;566.3218625622637
0.4280000000000003;6694079377.0;6693695068.0;334847.0;7.743960668704846;58.705824622504416;-31.19041772323677;39.29780823315876;750.0;-710.7021917668412
0.43200000000000033;6694110407.0;6693898315.0;162189.0;7.757611064622418;30.305081389032306;-12.926202504094661;3.4125989793931666;6250.0;-6246.587401020607
0.43600000000000033;6694140872.0;6693865356.0;226142.0;7.616357472563087;5.677187772274017;15.639784022760526;-35.3133980148328;333.3333333333333;-368.6467313481661
0.44000000000000034;6694170160.0;6693997192.0;125112.0;7.321906099512205;30.671943274620922;-15.46369703491368;-73.61284326272055;-166.66666666666666;93.05382340394611
0.44400000000000034;6694197596.0;6694123535.0;28771.0;6.858950237144712;24.41837589947507;-15.191676137800433;-115.73896559187324;-2833.3333333333335;2717.5943677414602
0.44800000000000034;6694222515.0;6694085083.0;95783.0;6.229748277293929;-2.283359748508781;15.17041638324609;-157.30048996269574;83.33333333333333;-240.63382329602908
0.45200000000000035;6694244431.0;6694238892.0;-31577.0;5.478942459945964;42.9147576116845;-38.19718348838202;-187.70145433699125;-500.0;312.2985456630087
0.45600000000000035;6694263118.0;6694304810.0;-73752.0;4.671795144169405;3.5182515218369663;-2.007619289539292;-201.78682894413978;416.6666666666667;-618.4534956108065
0.46000000000000035;6694278521.0;6694233398.0;18314.0;3.8508262670123905;-2.7262701769545674;8.988430590678112;-205.24221928925357;-1750.0;1544.7577807107464
0.46400000000000036;6694290717.0;6694310303.0;-41187.0;3.0489796227225834;11.297685122888536;-9.41788193203123;-200.4616610724518;0.0;-200.4616610724518
0.46800000000000036;6694299972.0;6694178467.0;104799.0;2.3137392028174664;-25.62809492558241;35.45375189160136;-183.81010497627926;-4166.666666666667;3982.856561690388
0.47200000000000036;6694306619.0;6694277344.0;16971.0;1.6617898533176294;17.650271523043514;-13.869844918511427;-162.98733737495925;1083.3333333333333;-1246.3206707082925
0.47600000000000037;6694311029.0;6694140015.0;162538.0;1.1025523435100786;-40.15236304134876;51.96420256315241;-139.8093774518877;-833.3333333333334;693.5239558814457
0.48000000000000037;6694313743.0;6694288330.0;19999.0;0.6783379121330971;41.23792396332323;-38.59410302886952;-106.05360784424536;-166.66666666666666;60.613058822421294
0.4840000000000004;6694315337.0;6694266357.0;45722.0;0.3986191714974294;-16.82623926731944;20.50719399932549;-69.92968515891693;2916.6666666666665;-2986.5963518255835
0.4880000000000004;6694316204.0;6694293823.0;20536.0;0.21681447342268434;34.345137700833384;-32.54305826741801;-45.45117451868627;-2166.6666666666665;2121.21549214798
