Zeit[sec];Sollposition[°];Istposition[°];Positionsschleppfehler[°];Sollgeschwindigkeit[°/s];Istgeschwindigkeit[°/s];Geschwindigkeitsdifferenz[°/s];Sollbeschleunigung[°/s*s];Istbeschleunigung[°/s*s];Beschleunigungsdifferenz[°/s*s]
0.0;-9.0;-170288.0;170328.0;-0.00585514392378899;-0.9986758815803672;17.336821272801455;1.40792307426918;0.0;1.40792307426918
0.004;-15.0;-164795.0;164799.0;-0.0013679980911978783;1.566669431135788;14.244762257926874;1.1217864581477779;-83.33333333333333;84.45511979148111
0.008;-11.0;-164795.0;164784.0;0.0009372012186817436;-0.14776686974689063;15.962921810837011;0.5762998274699055;0.0;0.5762998274699055
0.012;-5.0;-175781.0;175768.0;0.0014840091221313882;-2.3296257247060117;19.20287341025233;0.13670197586241115;-83.33333333333333;83.47003530919574
0.016;0.0;-175781.0;175773.0;0.001121068773102743;-4.003765732349531;20.879114227330856;-0.09073508725716128;0.0;-0.09073508725716128
0.02;1.0;-170288.0;170286.0;0.0005388840924334551;-0.7144301079615556;17.063223012953678;-0.145546170167322;0.0;-0.145546170167322
0.024;1.0;-170288.0;170288.0;9.703972323811696e-05;-3.7324659875891695;20.081006355836628;-0.11046109229883454;166.66666666666666;-166.7771277589655
0.028;1.0;-170288.0;170289.0;-0.00011640272250795964;-2.852514316564237;19.200625427506466;-0.05336061143651915;0.0;-0.05336061143651915
0.032;0.0;-175781.0;175782.0;-0.00015564798184725231;-5.140047443228321;22.015134445288716;-0.009811314834823167;0.0;-0.009811314834823167
0.036000000000000004;-301.0;-170288.0;170288.0;-0.07558956142529442;-2.5922178901804287;18.93973517796513;-18.858478360861792;-83.33333333333333;64.47485497247153
0.04000000000000001;-3310.0;-181274.0;181155.0;-0.7522506495832427;-6.336614443482206;23.69743065742762;-169.16527203948706;0.0;-169.16527203948706
0.04400000000000001;-76851.0;-170288.0;168796.0;-18.385168786811878;0.33249974773899316;15.528483137797165;-4408.229534307159;0.0;-4408.229534307159
0.048000000000000015;-235561.0;-170288.0;137838.0;-39.67756726133949;-1.0592963061437264;6.5522819405586485;-5323.0996186319035;83.33333333333333;-5406.4329519652365
0.05200000000000002;-563190.0;-170288.0;30942.0;-81.90712139291617;0.5244397209304643;-24.277961929456048;-10557.388532894169;-83.33333333333333;-10474.055199560837
0.05600000000000002;-1106257.0;-197754.0;-166777.0;-135.7667177402019;-8.7889932259275;-63.51776426448714;-13464.899086821433;-83.33333333333333;-13381.5657534881
0.060000000000000026;-1848188.0;-247192.0;-529396.0;-185.48272927750915;-12.86812744588295;-140.96805954879937;-12429.002884326814;-916.6666666666666;-11512.336217660146
0.06400000000000003;-2830072.0;-439453.0;-957786.0;-245.47114775412314;-52.18744848697203;-194.92276344274455;-14997.104619153497;-2083.3333333333335;-12913.771285820163
0.06800000000000003;-4145065.0;-977783.0;-1255359.0;-328.74808731820303;-141.5080279063504;-187.98233122299618;-20819.234891019973;-7166.666666666667;-13652.568224353307
0.07200000000000004;-5900283.0;-1812744.0;-1532949.0;-438.80466898918354;-209.65912670915927;-215.64163574042945;-27514.145417745127;-13916.666666666666;-13597.47875107846
0.07600000000000004;-8182745.0;-2933350.0;-1899926.0;-570.6154733670455;-290.79819539263906;-263.4905521062608;-32952.7010944655;-17833.333333333332;-15119.367761132164
0.08000000000000004;-11061365.0;-4625244.0;-2169715.0;-719.6547379249608;-430.4100136725219;-268.30335692543724;-37259.816139478826;-22000.0;-15259.81613947883
0.08400000000000005;-14593614.0;-6882935.0;-2427764.0;-883.0623431065227;-563.6973182618323;-298.30290983201667;-40851.90129539046;-26916.666666666668;-13935.234628723794
0.08800000000000005;-18822100.0;-9739380.0;-2705600.0;-1057.1213174218365;-725.534218622617;-317.77340457223283;-43514.74357882844;-32750.0;-10764.743578828444
0.09200000000000005;-23773399.0;-13408813.0;-2840633.0;-1237.8247733715857;-922.8942368595918;-300.92307145486836;-45175.86398743731;-38916.666666666664;-6259.197320770646
0.09600000000000006;-29458550.0;-17742920.0;-3017516.0;-1421.2876405450872;-1095.446642611708;-321.98243080007614;-45865.71679337538;-41833.333333333336;-4032.3834600420482
0.10000000000000006;-35867413.0;-22818604.0;-3179857.0;-1602.2157542962511;-1282.9528046794387;-331.81959160693555;-45232.02843779097;-45250.0;17.97156220902707
0.10400000000000006;-42968347.0;-28778687.0;-3187566.0;-1775.2333591509441;-1502.6442452013464;-295.30992370695594;-43254.40121367325;-46916.666666666664;3662.2654529934166
0.10800000000000007;-50714843.0;-35480347.0;-3164923.0;-1936.6238635749378;-1676.9706401508672;-296.61637340368384;-40347.62610599842;-49333.333333333336;8985.70722733492
0.11200000000000007;-59048785.0;-42896118.0;-3101986.0;-2083.485520567673;-1873.370054951157;-262.62899844882327;-36715.414248183835;-48500.0;11784.585751816167
0.11600000000000008;-67901473.0;-51157837.0;-2815894.0;-2213.1719253888773;-2063.547821548338;-200.68457082396935;-32421.601205301045;-49166.666666666664;16745.06546136562
0.12000000000000008;-77196816.0;-59710693.0;-2799213.0;-2323.835455493302;-2152.082340003787;-250.68574420397545;-27665.8825261062;-42500.0;14834.117473893799
0.12400000000000008;-86855606.0;-68856812.0;-2678248.0;-2414.6975558537406;-2288.952673081902;-224.44753959747368;-22715.525090109622;-38083.333333333336;15367.808243223713
0.12800000000000009;-96797923.0;-78365479.0;-2606431.0;-2485.5791368350174;-2387.2516526961285;-222.17816274806273;-17720.395245319196;-30166.666666666668;12446.271421347472
0.1320000000000001;-106948203.0;-88181763.0;-2559222.0;-2537.56982297244;-2457.8498521028305;-230.1040599659832;-12997.671534355617;-26333.333333333332;13335.661798977715
0.1360000000000001;-117244499.0;-98437500.0;-2326595.0;-2574.073830864667;-2570.4656567937004;-158.66477297677284;-9126.001973056758;-24000.0;14873.998026943242
0.1400000000000001;-127640125.0;-108803101.0;-2167948.0;-2598.9064074671655;-2593.4266763672795;-166.4347904327169;-6208.144150624662;-21333.333333333332;15125.18918270867
0.1440000000000001;-138098406.0;-119388428.0;-1917444.0;-2614.570202722033;-2650.3283544858923;-117.45193832141285;-3915.948813716909;-16250.0;12334.05118628309
0.1480000000000001;-148591186.0;-130193481.0;-1532277.0;-2623.1949030097003;-2706.5957408773365;-45.474205283052925;-2156.1750719167776;-14083.333333333334;11927.158261416556
0.1520000000000001;-159099457.0;-140800781.0;-1396569.0;-2627.06754707256;-2657.5551188417044;-94.41348673312496;-968.1610157149407;-7916.666666666667;6948.505650951726
0.1560000000000001;-169612138.0;-151314697.0;-1381373.0;-2628.169997529973;-2621.8716921498312;-135.41992636747955;-275.6126143532356;-2250.0;1974.3873856467644
0.16000000000000011;-180123949.0;-161878052.0;-1327947.0;-2627.952741993766;-2652.6497956162784;-102.31507656305348;54.31388405179405;4166.666666666667;-4112.352782614873
0.16400000000000012;-190633304.0;-172315063.0;-1403246.0;-2627.3386244123776;-2596.402308460316;-166.38670697352154;153.52939534705;3500.0;-3346.47060465295
0.16800000000000012;-201140486.0;-182664185.0;-1564966.0;-2626.7953510225675;-2591.4553793251775;-186.49188362480936;135.81834745252763;4666.666666666667;-4530.848319214139
0.17200000000000013;-211646371.0;-193244019.0;-1493640.0;-2626.4711633821425;-2663.5031342186435;-107.01312912852472;81.0469101062381;1500.0;-1418.953089893762
0.17600000000000013;-222151744.0;-203911743.0;-1332597.0;-2626.343029940218;-2657.5019951325085;-97.09731579858226;32.0333604811367;-2750.0;2782.0333604811367
0.18000000000000013;-232657069.0;-214535522.0;-1214507.0;-2626.3311030233735;-2650.2378074930157;-92.77712451844718;2.9817292111147253;-6000.0;6002.981729211115
0.18400000000000014;-243162521.0;-225148315.0;-1107071.0;-2626.3630215519106;-2667.65066335775;-64.96720452818454;-7.979632134265557;-3333.3333333333335;3325.353701199068
0.18800000000000014;-253668106.0;-235892944.0;-867818.0;-2626.3960512888443;-2668.9966700556793;-40.65768604980849;-8.257434233428285;-916.6666666666666;908.4092324332383
0.19200000000000014;-264173765.0;-246313477.0;-952789.0;-2626.414650303892;-2601.4976103885174;-116.34606391536954;-4.649753761896136;1500.0;-1504.6497537618961
0.19600000000000015;-274679443.0;-256640625.0;-1131254.0;-2626.419319355733;-2594.205334840487;-140.79828113359872;-1.1672629602799134;5083.333333333333;-5084.500596293613
0.20000000000000015;-285185108.0;-267286377.0;-991169.0;-2626.4162435427515;-2643.954347400941;-77.61426913045034;0.7689532453696302;4583.333333333333;-4582.564380087963
0.20400000000000015;-295690753.0;-277932129.0;-851089.0;-2626.4111757709975;-2651.1486702379925;-56.97394624822755;1.2669429385141484;-1750.0;1751.2669429385141
0.20800000000000016;-306196383.0;-288429565.0;-859310.0;-2626.407305644612;-2632.627890539439;-76.28012173333946;0.9675315964159381;-4416.666666666667;4417.634198263083
0.21200000000000016;-316702006.0;-299245605.0;-548910.0;-2626.4054868479034;-2693.2336482201013;14.128617199770815;0.4546991771121611;-3083.3333333333335;3083.7880325104456
0.21600000000000016;-327207627.0;-309885864.0;-414278.0;-2626.4052785490444;-2657.7898952714145;-8.387399925243699;0.05207471474477643;-1750.0;1750.0520747147448
0.22000000000000017;-337713251.0;-320213013.0;-592751.0;-2626.4058840777043;-2588.040813385686;-95.26869753198162;-0.1513821649723468;1416.6666666666667;-1416.818048831639
0.22400000000000017;-348218878.0;-330726929.0;-584457.0;-2626.4066717127293;-2614.448314057842;-68.06507779435424;-0.19690875626565685;5083.333333333333;-5083.530242089599
0.22800000000000017;-358724508.0;-341114502.0;-702510.0;-2626.407320757423;-2606.673823180264;-87.17332963440094;-0.16226117338646873;6500.0;-6500.1622611733865
0.23200000000000018;-369230140.0;-351480103.0;-842537.0;-2626.4077592713115;-2589.7325314957347;-117.55794493802796;-0.109628472159784;1583.3333333333333;-1583.442961805493
0.23600000000000018;-379735772.0;-362048950.0;-779320.0;-2626.4080424001445;-2641.2594103219976;-59.96280049633606;-0.07078220824041637;-250.0;249.92921779175958
0.24000000000000019;-390241406.0;-372590332.0;-743570.0;-2626.4082543518457;-2642.8264630733815;-54.964125884665464;-0.05298792530084029;-2916.6666666666665;2916.6136787413657
0.2440000000000002;-400747040.0;-383131714.0;-707821.0;-2626.408458030685;-2623.29241589394;-71.06652488278769;-0.0509197097926517;-3916.6666666666665;3916.615746956874
0.2480000000000002;-411252675.0;-393788452.0;-556717.0;-2626.408683314789;-2664.5072948168217;-15.345871048592926;-0.056321026022487786;-2333.3333333333335;2333.277012307311
0.25200000000000017;-421758312.0;-404340820.0;-509984.0;-2626.4089352940864;-2642.271765291212;-33.095244867667134;-0.06299482436133985;-1250.0;1249.9370051756387
0.25600000000000017;-432263949.0;-414942627.0;-413812.0;-2626.4092072303724;-2637.120391926623;-29.0143419739984;-0.06798407150654384;-250.0;249.93201592849346
0.2600000000000002;-442769588.0;-425522461.0;-339615.0;-2626.4094903292266;-2643.0122056275823;-15.999876008550928;-0.0707747135493264;-250.0;249.92922528645067
0.2640000000000002;-453275227.0;-435986938.0;-380776.0;-2626.4097784241944;-2616.0787825825346;-46.88503129873925;-0.07202374195003358;1833.3333333333333;-1833.4053570752833
0.2680000000000002;-463780868.0;-446583252.0;-290101.0;-2626.410068806432;-2645.552950435201;-8.706348460396839;-0.07259555934524542;1750.0;-1750.0725955593452
0.2720000000000002;-474286510.0;-457234497.0;-144496.0;-2626.4103611990627;-2673.9118068100265;33.63029894187275;-0.07309815771350259;-583.3333333333334;583.2602351756199
0.2760000000000002;-484792153.0;-467808838.0;-75796.0;-2626.4106563962223;-2644.5924194332733;10.905820399190816;-0.07379928990758344;-2500.0;2499.9262007100924
0.2800000000000002;-495297797.0;-478443604.0;53327.0;-2626.4109553017524;-2653.660380166657;32.369295639769916;-0.07472638253602781;-1750.0;1749.925273617464
0.2840000000000002;-505803443.0;-489215698.0;319778.0;-2626.411258504365;-2705.6049204116375;109.89283523371887;-0.07580065312140505;-1583.3333333333333;1583.2575326802119
0.2880000000000002;-516309090.0;-499724121.0;322556.0;-2626.4115662315626;-2629.462004663085;34.01630689763397;-0.076931799412705;-750.0;749.9230682005873
0.2920000000000002;-526814738.0;-510128174.0;220963.0;-2626.411878472873;-2603.537013283709;-1.6619174530942473;-0.07806032760981907;3416.6666666666665;-3416.7447269942763
0.2960000000000002;-537320387.0;-520510254.0;97395.0;-2626.4121951221823;-2618.2638059566953;1.2020377294197715;-0.07916232732441131;6833.333333333333;-6833.412495660657
0.3000000000000002;-547826037.0;-530925293.0;6786.0;-2626.4125160711646;-2587.399311800935;-38.36123438889899;-0.08023724558370304;4083.3333333333335;-4083.413570578917
0.3040000000000002;-558331689.0;-541181030.0;-243127.0;-2626.4128412477708;-2569.3587607277022;-80.39375179036278;-0.08129415152779984;3166.6666666666665;-3166.7479608181943
0.3080000000000002;-568837342.0;-551667480.0;-262327.0;-2626.413170616996;-2640.3779719405284;-11.218063177520435;-0.08234230631387618;250.0;-250.08234230631388
0.3120000000000002;-579342997.0;-562329712.0;-105748.0;-2626.4135041666073;-2651.4070261730863;14.842248240891877;-0.08338740281033097;-3333.3333333333335;3333.249945930523
0.3160000000000002;-589848653.0;-572909546.0;-31568.0;-2626.4138418923017;-2641.9986761423334;12.554847208032697;-0.08443142360192724;-6666.666666666667;6666.582235243065
0.32000000000000023;-600354310.0;-583395996.0;-50773.0;-2626.4141837894463;-2634.528422696041;3.2405785808632572;-0.0854742861520208;-3666.6666666666665;3666.5811923805145
0.32400000000000023;-610859969.0;-594080200.0;127775.0;-2626.4145298484304;-2652.5636174041933;38.41604193388457;-0.08651474604448595;333.3333333333333;-333.4198480793778
0.32800000000000024;-621365629.0;-604440308.0;-17775.0;-2626.4148800559374;-2588.2802908855983;-39.840428107517255;-0.08755187673159526;2083.3333333333335;-2083.420885210065
0.33200000000000024;-631871290.0;-614739990.0;-223752.0;-2626.4152343964824;-2584.563629926453;-63.331228746092165;-0.08858513626819331;4333.333333333333;-4333.421918469601
0.33600000000000024;-642376953.0;-625385742.0;-83661.0;-2626.4155928535765;-2653.810157105691;19.363682611260174;-0.08961427352005558;3166.6666666666665;-3166.7562809401866
0.34000000000000025;-652882617.0;-635894165.0;-80900.0;-2626.4159554107305;-2638.038616875973;3.856842433075599;-0.09063928848718206;-1166.6666666666667;1166.5760273781796
0.34400000000000025;-663388283.0;-646325684.0;-155044.0;-2626.416322051519;-2613.2660988343378;-28.03385966714859;-0.09166019708573003;-4000.0;3999.9083398029143
0.34800000000000025;-673893950.0;-657081299.0;94906.0;-2626.4166927601104;-2685.9598855153463;68.65476286164358;-0.0926771479043964;-2000.0;1999.9073228520956
0.35200000000000026;-684399619.0;-667699585.0;207526.0;-2626.4170675202054;-2650.6281658209996;44.13419493759011;-0.09369002373205149;-3333.3333333333335;3333.2396433096014
0.35600000000000026;-694905289.0;-677971802.0;-25925.0;-2626.417446315817;-2567.2025876775565;-61.703051496956505;-0.09469890289892646;916.6666666666666;-916.7613655695656
0.36000000000000026;-705410961.0;-688469238.0;-34158.0;-2626.417829130676;-2624.0363781352794;-5.6600053756146735;-0.09570371480549511;4750.0;-4750.0957037148055
0.36400000000000027;-715916635.0;-698845825.0;-163242.0;-2626.4182159481993;-2597.908640746764;-44.18018712965386;-0.09670438078046573;5666.666666666667;-5666.763371047447
0.36800000000000027;-726422310.0;-709304810.0;-209930.0;-2626.418606751614;-2598.7556870524454;-47.81557320228285;-0.09770085364380066;0.0;-0.09770085364380066
0.3720000000000003;-736927986.0;-719813232.0;-207182.0;-2626.419001523866;-2635.1033228691563;-11.2045177599839;-0.09869306302334735;-1666.6666666666667;1666.5679736036434
0.3760000000000003;-747433664.0;-730321655.0;-204435.0;-2626.4194002478384;-2626.887115701395;-19.157405281371666;-0.09968099311663536;-1833.3333333333333;1833.2336523402166
0.3800000000000003;-757939344.0;-740901489.0;-130277.0;-2626.4198029063823;-2630.3587776328695;-8.566971665713936;-0.10066463596558606;-2500.0;2499.8993353640344
0.3840000000000003;-768445025.0;-751508789.0;-28656.0;-2626.420209481878;-2660.1470104363125;30.976476876921424;-0.10164387390432239;-2416.6666666666665;2416.565022792762
0.3880000000000003;-778950708.0;-762017212.0;-25914.0;-2626.4206199567366;-2620.8515856616673;-8.056120086232568;-0.10261871466354933;-1416.6666666666667;1416.5640479520032
0.3920000000000003;-789456393.0;-772558594.0;9787.0;-2626.4210343130862;-2627.244885086722;1.7640672402662858;-0.10358908741636697;1166.6666666666667;-1166.770255754083
0.3960000000000003;-799962079.0;-783050537.0;-3954.0;-2626.421452533152;-2633.894260942272;7.093895104848343;-0.10455501649175858;1333.3333333333333;-1333.437888349825
0.4000000000000003;-810467767.0;-793542480.0;-17697.0;-2626.4218745987782;-2615.7609369162087;-12.359172786726504;-0.10551640650646732;1500.0;-1500.1055164065065
0.4040000000000003;-820973457.0;-804050903.0;-14960.0;-2626.422300491435;-2627.8160155413275;-0.04176188373776313;-0.10647316423728626;750.0;-750.1064731642373
0.4080000000000003;-831479148.0;-814586792.0;15240.0;-2626.4227301927804;-2646.9806143125807;22.021613327060095;-0.10742533629581885;-416.6666666666667;416.55924133037087
0.4120000000000003;-841984841.0;-825139160.0;61917.0;-2626.42316368422;-2627.1467055921053;6.6682692262752425;-0.10837285992693069;-1333.3333333333333;1333.2249604734063
0.4160000000000003;-852490536.0;-835751953.0;169019.0;-2626.4236009468787;-2654.1164021288705;43.91932658129281;-0.10931566464478237;-1500.0;1499.8906843353552
0.4200000000000003;-862996233.0;-846403198.0;314570.0;-2626.4240419620364;-2669.961063380059;73.73644886800639;-0.11025378944395925;-2583.3333333333335;2583.2230795438895
0.4240000000000003;-873501931.0;-856966553.0;372229.0;-2626.42448671022;-2625.1259262625003;34.436137022090406;-0.11118704594537121;-1333.3333333333333;1333.222146287388
0.4280000000000003;-884007632.0;-867370605.0;270584.0;-2626.4249351723975;-2594.8903916071813;-5.557760106486057;-0.11211554431156401;1833.3333333333333;-1833.4454488776448
0.43200000000000033;-894513334.0;-877708740.0;103020.0;-2626.425387329095;-2589.9064304451163;-26.62831146740973;-0.11303917437999189;5750.0;-5750.11303917438
0.43600000000000033;-905019038.0;-888217163.0;105741.0;-2626.4258431605253;-2603.7258907047435;-12.548085113004163;-0.11395785759305;4000.0;-4000.113957857593
0.44000000000000034;-915524743.0;-898500366.0;-116759.0;-2626.4263026472163;-2582.960654942318;-54.67377446745377;-0.11487167273571686;2583.3333333333335;-2583.448205006069
0.44400000000000034;-926030451.0;-908854980.0;-267849.0;-2626.42676576894;-2603.3843307400975;-48.75519592882938;-0.11578043097415502;916.6666666666666;-916.7824470976408
0.44800000000000034;-936536160.0;-919583130.0;-45405.0;-2626.427232505786;-2672.35115889844;41.56579532302112;-0.11668421143440355;-2333.3333333333335;2333.216649121899
0.45200000000000035;-947041872.0;-930157471.0;23227.0;-2626.427702837619;-2647.2041266770134;23.006970567808366;-0.11758295829622512;-6500.0;6499.882417041704
0.45600000000000035;-957547585.0;-940594482.0;-45472.0;-2626.4281767436496;-2614.8367536503083;-15.955974599901765;-0.11847650762319972;-4166.666666666667;4166.548190159044
0.46000000000000035;-968053300.0;-951256714.0;111048.0;-2626.4286542039627;-2664.8466890354757;49.079409057365865;-0.11936507826248999;1000.0;-1000.1193650782625
0.46400000000000036;-978559017.0;-961688232.0;36852.0;-2626.429135197139;-2615.665664650363;-7.224906622039725;-0.12024829413803673;1750.0;-1750.120248294138
0.46800000000000036;-989064736.0;-971982422.0;-174674.0;-2626.429619703047;-2582.925141659644;-60.272404452948194;-0.12112647698359069;3166.6666666666665;-3166.78779314365
0.47200000000000036;-999570457.0;-982529297.0;-133517.0;-2626.430107700077;-2652.8148406233713;13.567884145533753;-0.12199925743061613;3250.0;-3250.1219992574306
