Zeit[sec];Sollposition[°];Istposition[°];Positionsschleppfehler[°];Sollgeschwindigkeit[°/s];Istgeschwindigkeit[°/s];Geschwindigkeitsdifferenz[°/s];Sollbeschleunigung[°/s*s];Istbeschleunigung[°/s*s];Beschleunigungsdifferenz[°/s*s]
0.0;9817499999.0;9817503662.0;-3663.0;0.0;1.8761069068014622;-2.0958869068517982;0.0;0.0;0.0
0.004;9817499999.0;9817498169.0;1830.0;0.0;-1.0267591935396194;1.136559193551264;0.0;0.0;0.0
0.008;9817499999.0;9817498169.0;1830.0;0.0;-1.5164804996550083;1.626280499666653;0.0;0.0;0.0
0.012;9817499999.0;9817498169.0;1830.0;0.0;-1.4169715376123786;1.5267715376240232;0.0;0.0;0.0
0.016;9817499999.0;9817498169.0;1830.0;0.0;-0.8505144842714072;0.9603144842830519;0.0;0.0;0.0
0.02;9817499999.0;9817503662.0;-3663.0;0.0;2.09958518756181;-2.319365187612146;0.0;0.0;0.0
0.024;9817499999.0;9817503662.0;-3663.0;0.0;2.5710431800410154;-2.7908231800913517;0.0;0.0;0.0
0.028;9817499999.0;9817498169.0;1830.0;0.0;-1.7293249975815417;1.8391249975931863;0.0;0.0;0.0
0.032;9817499999.0;9817503662.0;-3663.0;0.0;1.172882128611207;-1.392662128661543;0.0;0.0;0.0
0.036000000000000004;9817499999.0;9817498169.0;1830.0;0.0;-0.7096236263811588;0.8194236263928035;0.0;0.0;0.0
0.04000000000000001;9817499999.0;9817498169.0;1830.0;0.0;-0.9034423083737493;1.0132423083853939;0.0;0.0;0.0
0.04400000000000001;9817499999.0;9817503662.0;-3663.0;0.0;1.66889898673445;-1.888678986784786;0.0;0.0;0.0
0.048000000000000015;9817497423.0;9817503662.0;-3663.0;-0.6440925739264198;2.128185934640467;-2.3479659346908033;-161.02314348160496;0.0;-161.02314348160496
0.05200000000000002;9817471748.0;9817498169.0;808.0;-6.418815893935129;-0.7656883521005512;0.5587957104801343;-1443.6808300021773;0.0;-1443.6808300021773
0.05600000000000002;9817345549.0;9817498169.0;-10912.0;-31.54978171968707;-0.9331121315360069;-2.6515140287984695;-6282.741456437985;0.0;-6282.741456437985
0.060000000000000026;9816930981.0;9817481689.0;-59827.0;-103.64189114067597;-6.629267451226712;-13.309367451834161;-18023.027355247224;-83.33333333333333;-17939.694021913892
0.06400000000000003;9815894491.0;9817349854.0;-167936.0;-259.1224848683733;-37.88134448180348;-32.18074043132077;-38870.14843192433;-1333.3333333333333;-37536.815098591
0.06800000000000003;9813836871.0;9816855469.0;-333012.0;-514.4049498332691;-133.7484458206743;-51.09737664510146;-63820.61624122396;-6000.0;-57820.61624122396
0.07200000000000004;9810158186.0;9815465698.0;-380949.0;-919.6713658647112;-361.03455033227056;-21.249364002325876;-101316.60400786051;-19000.0;-82316.60400786051
0.07600000000000004;9804353203.0;9813059692.0;-669307.0;-1451.2454829033538;-621.5277374214306;-92.22163838739857;-132893.52925966066;-38083.333333333336;-94810.19592632732
0.08000000000000004;9795981989.0;9808851929.0;-973774.0;-2092.803608648806;-1095.7485518476442;-90.7354776708928;-160389.53143636303;-61333.333333333336;-99056.19810302969
0.08400000000000005;9784691450.0;9802271118.0;-1202958.0;-2822.634587941412;-1676.264724585034;-98.41131873865697;-182457.74482315153;-94000.0;-88457.74482315153
0.08800000000000005;9770232607.0;9792740479.0;-1185963.0;-3614.7105204291274;-2416.0925489851015;-33.47628970113374;-198018.98312192885;-128333.33333333333;-69685.64978859552
0.09200000000000005;9752506255.0;9780298462.0;-1273563.0;-4431.587887810085;-3163.3182987590208;-45.49944683306512;-204219.34184523934;-161666.66666666666;-42552.67517857268
0.09600000000000006;9731594879.0;9764626465.0;-1337361.0;-5227.843556340499;-3957.032047947608;-57.15817502229174;-199063.9171326036;-181416.66666666666;-17647.250465936937
0.10000000000000006;9707752326.0;9745620117.0;-1301031.0;-5960.638158460936;-4774.254044423498;-46.31224363953879;-183198.65053010927;-194750.0;11551.349469890738
0.10400000000000006;9681371808.0;9723669434.0;-1405228.0;-6595.129188715415;-5530.726369725883;-67.30691588193076;-158622.75756361964;-198083.33333333334;39460.5757697137
0.10800000000000007;9652944401.0;9698774414.0;-1341850.0;-7106.851266682198;-6231.507737510898;-56.913482151870994;-127930.5194916958;-196166.66666666666;68236.14717497086
0.11200000000000007;9622999722.0;9671627197.0;-1371839.0;-7486.169398957739;-6800.475570571937;-76.13604551949084;-94829.53306888521;-180500.0;85670.46693111479
0.11600000000000008;9592033702.0;9642540894.0;-1302524.0;-7741.50457460743;-7279.5912616754695;-52.80678605757657;-63833.793912422836;-159916.66666666666;96082.87275424383
0.12000000000000008;9560457463.0;9612070313.0;-1172678.0;-7894.05941153511;-7621.474627833501;-34.06929147591836;-38138.70923191985;-131166.66666666666;93027.95743474682
0.12400000000000008;9528579090.0;9580693359.0;-997702.0;-7969.5930089468875;-7855.141199101463;-5.215000133693138;-18883.399352944478;-101666.66666666667;82783.26731372219
0.12800000000000009;9496561817.0;9548948364.0;-945162.0;-8004.317844265408;-7945.152688969486;-34.67045772930578;-8681.208829630123;-71666.66666666667;62985.45783703655
0.1320000000000001;9464595781.0;9517088013.0;-1016485.0;-7991.508649567581;-7983.208815219745;-60.69856868300576;3202.2986744566424;-40500.0;43702.298674456644
0.1360000000000001;9432665418.0;9485046387.0;-971004.0;-7982.590361696225;-8022.901785011679;-34.39418786774331;2229.5719678390924;-21333.333333333332;23562.905301172425
0.1400000000000001;9400772470.0;9453147583.0;-1024392.0;-7973.236495880884;-7993.669227180988;-55.84203446908032;2338.466453835281;-7083.333333333333;9421.799787168613
0.1440000000000001;9368903919.0;9421034546.0;-827093.0;-7967.137512866228;-8034.9572119741515;6.397676326466353;1524.7457536640923;-4666.666666666667;6191.412420330759
0.1480000000000001;9337045977.0;9389196167.0;-872208.0;-7964.484978650555;-7976.0208682554885;-47.184763964249214;663.1335539182146;-333.3333333333333;996.4668872515479
0.1520000000000001;9305189683.0;9357187500.0;-728028.0;-7964.073279665813;-8014.84153094887;5.03829022465743;102.92474618540837;1166.6666666666667;-1063.7419204812584
0.1560000000000001;9273331240.0;9325211792.0;-609671.0;-7964.61025270107;-7999.24414280764;-1.673405821005872;-134.24325881419463;-250.0;115.75674118580537
0.16000000000000011;9241470215.0;9293071289.0;-326324.0;-7965.2557735636;-8047.674070906408;63.806037523600935;-161.38021563256189;-833.3333333333334;671.9531177007715
0.16400000000000012;9209607571.0;9260952759.0;-67248.0;-7965.660693838161;-8014.916237050459;46.01831174002473;-101.2300686402341;-6166.666666666667;6065.436598026433
0.16800000000000012;9177744387.0;9229010010.0;13849.0;-7965.7957000984725;-7978.949228246413;14.367632469612545;-33.75156507786414;333.3333333333333;-367.08489841119746
0.17200000000000013;9145881334.0;9197149658.0;11353.0;-7965.762899146541;-7949.453459225625;-15.577209905514792;8.200237982919134;2333.3333333333335;-2325.1330953504144
0.17600000000000013;9114018641.0;9165360718.0;-62836.0;-7965.672682929631;-7937.398980468102;-32.15308351316071;22.554054227384768;8166.666666666667;-8144.112612439282
0.18000000000000013;9082156266.0;9133566284.0;-131313.0;-7965.593422475274;-7952.791438268222;-20.81466375103264;19.815113589402245;5250.0;-5230.184886410598
0.18400000000000014;9050294069.0;9101804810.0;-232408.0;-7965.548950299072;-7938.666087746084;-40.920178262448644;11.118044050363096;2666.6666666666665;-2655.5486226163034
0.18800000000000014;9018431925.0;9069938965.0;-228870.0;-7965.5355347771765;-7963.846239132732;-15.462215236298107;3.3538804739237094;-250.0;253.3538804739237
0.19200000000000014;8986569765.0;9038078613.0;-230694.0;-7965.539695042371;-7959.963778039373;-19.421753794154938;-1.040066298628517;-2333.3333333333335;2332.293267034705
0.19600000000000015;8954707567.0;9006317139.0;-331371.0;-7965.549239140275;-7943.73397146497;-41.68555139896671;-2.386024475981685;-166.66666666666666;164.28064219068497
0.20000000000000015;8922845336.0;8974396362.0;-272769.0;-7965.557216083636;-7987.392220699653;5.482625948104214;-1.9942358403568505;-250.0;248.00576415964315
0.20400000000000015;8890983089.0;8942640381.0;-378999.0;-7965.561466823257;-7956.9903076519;-31.30197829928875;-1.0626849052641774;1000.0;-1001.0626849052642
0.20800000000000016;8859120837.0;8910834961.0;-435816.0;-7965.562582410425;-7952.268512431607;-39.439302263915124;-0.27889679199688544;-166.66666666666666;166.38776987466977
0.21200000000000016;8827258587.0;8878974609.0;-437713.0;-7965.562019166786;-7962.31843910452;-29.50622512488826;0.1408109098974819;-333.3333333333333;333.4741442432308
0.21600000000000016;8795396342.0;8847086792.0;-412147.0;-7965.561010408043;-7974.321775220044;-15.96939733650197;0.252189685625126;-750.0;750.2521896856251
0.22000000000000017;8763534099.0;8815078125.0;-265728.0;-7965.560219873536;-7994.680247131541;13.174944621591749;0.19763362683988817;-3416.6666666666665;3416.8643002935064
0.22400000000000017;8731671859.0;8783080444.0;-130292.0;-7965.559825842938;-7995.3440095332635;21.965786649102483;0.0985076494544046;-3250.0;3250.0985076494544
0.22800000000000017;8699809618.0;8751198120.0;-110209.0;-7965.559744007928;-7970.320078835204;-1.8525294434202806;0.02045875248768425;-1666.6666666666667;1666.6871254191544
0.23200000000000018;8667947377.0;8719332275.0;-106605.0;-7965.55981863051;-7968.269605503142;-3.6864902022289243;-0.01865564536274178;2416.6666666666665;-2416.6853223120293
0.23600000000000018;8636085136.0;8687378540.0;-15111.0;-7965.559926475454;-7959.201591935933;-7.264842138164568;-0.026961236017086776;750.0;-750.0269612360171
0.24000000000000019;8604222895.0;8655463257.0;37931.0;-7965.560005442299;-7953.379002955333;-9.904997996731254;-0.019741711412279983;0.0;-0.019741711412279983
0.2440000000000002;8572360653.0;8623498535.0;140412.0;-7965.560042065362;-7976.804484907098;19.669247754377466;-0.009155765610557864;-1083.3333333333333;1083.3241775677227
0.2480000000000002;8540498411.0;8591511841.0;264865.0;-7965.560047520384;-7969.126799068965;19.458679568862863;-0.0013637554729939438;-833.3333333333334;833.3319695778604
0.25200000000000017;8508636169.0;8559700928.0;213536.0;-7965.560038429624;-7943.504229862806;-9.24365415079501;0.00227268992603058;1416.6666666666667;-1416.6643939767407
0.25600000000000017;8476773928.0;8527999878.0;52344.0;-7965.560027095483;-7907.25348832744;-55.1659155567113;0.002833535290847067;2833.3333333333335;-2833.3304997980426
0.2600000000000002;8444911686.0;8496276855.0;-86875.0;-7965.560019295737;-7931.844900675949;-38.92763331309743;0.0019499364043440437;7166.666666666667;-7166.664716730263
0.2640000000000002;8413049445.0;8464383545.0;-55806.0;-7965.560015949827;-7961.433520612966;-7.474863456453932;0.0008364775112568168;750.0;-749.9991635224887
0.2680000000000002;8381187203.0;8432627563.0;-162066.0;-7965.560015683845;-7947.533153608177;-27.75082440664937;6.649543138337322e-05;-583.3333333333334;583.3333998287648
0.2720000000000002;8349324962.0;8400860596.0;-257340.0;-7965.560016748338;-7960.320458072893;-20.679957791066954;-0.00026612315195961855;-1583.3333333333333;1583.3330672101813
0.2760000000000002;8317462720.0;8369044189.0;-303175.0;-7965.560017927228;-7965.59669144962;-18.15382465785933;-0.0002947224402305437;750.0;-750.0002947224402
0.2800000000000002;8285600478.0;8336936646.0;-57873.0;-7965.560018690539;-8030.032827613637;61.00043040408673;-0.00019082790458924137;-3666.6666666666665;3666.666475838762
0.2840000000000002;8253738237.0;8305026855.0;-10324.0;-7965.560018990866;-7984.849123424195;18.669665201219686;-7.508174348913599e-05;-6166.666666666667;6166.6665915849235
0.2880000000000002;8221875995.0;8273117065.0;37224.0;-7965.560018989447;-7997.97586336166;34.64928455651716;3.5493030736688524e-07;-1250.0;1250.0000003549303
0.2920000000000002;8190013754.0;8241328125.0;-36077.0;-7965.56001886767;-7951.2184920966065;-16.506146891952085;3.0444198273471557e-05;1416.6666666666667;-1416.6666362224685
0.2960000000000002;8158151512.0;8209511719.0;-81913.0;-7965.560018746177;-7990.264288057845;19.789489116546974;3.0373257686733268e-05;6416.666666666667;-6416.666636293409
0.3000000000000002;8126289270.0;8177492065.0;75500.0;-7965.560018671804;-8008.7922008905825;47.76218207038528;1.859325493569486e-05;-2416.6666666666665;2416.6666852599215
0.3040000000000002;8094427029.0;8145758057.0;-52734.0;-7965.560018645406;-7947.1229777510725;-21.601080966362133;6.5995209297398105e-06;500.0;-499.99999340047907
0.3080000000000002;8062564787.0;8113760376.0;82705.0;-7965.560018648811;-7998.393470909592;37.795752247863675;-8.512870408594608e-07;-3000.0;2999.999999148713
0.3120000000000002;8030702546.0;8082015381.0;-34541.0;-7965.560018661869;-7930.032320499584;-37.600158147391994;-3.264631232013926e-06;1500.0;-1500.0000032646312
0.3160000000000002;7998840304.0;8050111084.0;7514.0;-7965.560018674642;-7992.976847759873;27.867669105928144;-3.193235897924751e-06;2666.6666666666665;-2666.6666698599024
0.32000000000000023;7966978062.0;8018206787.0;49570.0;-7965.560018681739;-7957.1954682088835;-5.390350457920249;-1.7741967894835398e-06;-2500.0;2499.999998225803
0.32400000000000023;7935115821.0;7986417847.0;-23732.0;-7965.560018684578;-7958.662864601721;-8.321074075696743;-7.096332410583273e-07;2583.3333333333335;-2583.3333340429667
0.32800000000000024;7903253579.0;7954431152.0;100721.0;-7965.560018683443;-7977.768901331108;18.25214264833903;2.837623469531536e-07;-4166.666666666667;4166.666666950429
0.33200000000000024;7871391338.0;7922675171.0;-5539.0;-7965.560018682023;-7958.301863322936;-7.590495361175272;3.5493030736688524e-07;3916.6666666666665;-3916.666666311736
0.33600000000000024;7839529096.0;7890611572.0;195818.0;-7965.560018680604;-8008.275338850018;54.46440016715496;3.54702933691442e-07;-3416.6666666666665;3416.6666670213694
0.34000000000000025;7807666855.0;7858998413.0;-53264.0;-7965.560018679753;-7902.200063991126;-66.55579469031818;2.128217602148652e-07;1916.6666666666667;-1916.666666453845
0.34400000000000025;7775804613.0;7826989746.0;93161.0;-7965.560018679753;-8003.32293958867;43.35258090828302;0.0;916.6666666666666;-916.6666666666666
0.34800000000000025;7743942371.0;7795178833.0;41833.0;-7965.560018679753;-7948.657890414913;-14.392148264713796;0.0;-333.3333333333333;333.3333333333333
0.35200000000000026;7712080130.0;7763307495.0;50929.0;-7965.560018679753;-7985.337928110894;22.8336494311161;0.0;1833.3333333333333;-1833.3333333333333
0.35600000000000026;7680217888.0;7731430664.0;65518.0;-7965.560018680888;-7953.865031364046;-7.763907315757933;-2.837623469531536e-07;-4083.3333333333335;4083.333333049571
0.36000000000000026;7648355647.0;7699674683.0;-40742.0;-7965.560018680036;-7967.580531763233;-0.4240069170091374;2.1304913389030844e-07;4916.666666666667;-4916.666666453618
0.36400000000000027;7616493405.0;7667677002.0;94697.0;-7965.560018680319;-7973.565424149543;13.687225468973338;-7.09405867382884e-08;-4333.333333333333;4333.333333262392
0.36800000000000027;7584631163.0;7636146240.0;-236782.0;-7965.560018680036;-7903.45345150406;-76.31348717618039;7.09405867382884e-08;5333.333333333333;-5333.333333262392
0.3720000000000003;7552768922.0;7604208984.0;-161768.0;-7965.560018680319;-7958.92739322206;-16.338705458102595;-7.09405867382884e-08;-1250.0;1249.9999999290594
0.3760000000000003;7520906680.0;7572546387.0;-361413.0;-7965.560018680036;-7915.734243466392;-71.51055521383842;7.09405867382884e-08;4000.0;-3999.9999999290594
0.3800000000000003;7489044439.0;7540537720.0;-214987.0;-7965.560018680036;-7981.61248615722;3.1532474770101544;0.0;-2833.3333333333335;2833.3333333333335
0.3840000000000003;7457182197.0;7508693848.0;-233357.0;-7965.560018680888;-7941.594167431601;-37.96727124843801;-2.1304913389030844e-07;-3666.6666666666665;3666.6666664536174
0.3880000000000003;7425319955.0;7476740112.0;-141862.0;-7965.560018680319;-7989.349352652058;15.277613971537903;1.4210854715202004e-07;-1000.0;1000.0000001421085
0.3920000000000003;7393457714.0;7444643555.0;92453.0;-7965.560018680036;-7995.750026978742;35.737188298127876;7.09405867382884e-08;-5333.333333333333;5333.333333404274
0.3960000000000003;7361595472.0;7412640381.0;233385.0;-7965.560018680319;-7998.661516482469;47.1045978022421;-7.09405867382884e-08;-916.6666666666666;916.666666595726
0.4000000000000003;7329733231.0;7380703125.0;308400.0;-7965.560018680036;-7965.388059507474;18.332040827308447;7.09405867382884e-08;-3250.0;3250.0000000709406
0.4040000000000003;7297870989.0;7348919678.0;229605.0;-7965.560018680036;-7944.72755748082;-7.056161199418057;0.0;5416.666666666667;-5416.666666666667
0.4080000000000003;7266008981.0;7317053833.0;233209.0;-7965.50155360071;-7952.118370570019;0.5508918900113713;14.616269831321915;3500.0;-3485.383730168678
0.4120000000000003;7234148720.0;7285363770.0;61123.0;-7965.065072442211;-7917.991061404601;-43.87839678495402;109.1202896247978;4500.0;-4390.879710375202
0.4160000000000003;7202294788.0;7253525391.0;38185.0;-7963.482474140539;-7979.916500574801;16.878762364603972;395.6495754180196;2916.6666666666665;-2521.017091248647
0.4200000000000003;7170456858.0;7221714478.0;-8664.0;-7959.482125690901;-7954.496735529453;-10.46325892106779;1000.0871124095738;-833.3333333333334;1833.4204457429073
0.4240000000000003;7138652727.0;7189892578.0;-34389.0;-7951.032336340214;-7965.970210502591;2.001198980044137;2112.4473376717106;-333.3333333333333;2445.780671005044
0.4280000000000003;7106912560.0;7158103638.0;-70072.0;-7935.041362162539;-7948.450958878749;-11.908716904322318;3997.743544418654;-3166.6666666666665;7164.41021108532
0.43200000000000033;7075226352.0;7126556396.0;-301798.0;-7921.5516584956285;-7914.7866683514385;-48.06288707078147;3372.425916727707;5583.333333333333;-2210.907416605626
0.43600000000000033;7043738861.0;7094750977.0;-215526.0;-7871.872472516883;-7959.942659035463;17.224496485886448;12419.796494686352;1916.6666666666667;10503.129828019686
0.44000000000000034;7012484383.0;7063099365.0;-171651.0;-7813.6191718506725;-7937.525659068227;25.29292034338414;14563.325166552659;2500.0;12063.325166552659
0.44400000000000034;6981536078.0;7031403809.0;127636.0;-7737.075686247545;-7930.10135830142;88.6924803104921;19135.87140078198;-1916.6666666666667;21052.538067448648
0.44800000000000034;6950977797.0;7000317993.0;79001.0;-7639.570017862235;-7780.833383848414;1.9612401138610949;24376.41709632749;5916.666666666667;18459.75042966082
0.45200000000000035;6920932875.0;6969462891.0;138643.0;-7511.230180726226;-7710.272498358697;19.72636911391328;32084.959284002252;15833.333333333334;16251.625950668918
0.45600000000000035;6891585057.0;6939058228.0;186278.0;-7336.95402181439;-7574.426964098335;-3.652955925132119;43569.03972795885;21000.0;22569.03972795885
0.46000000000000035;6863181237.0;6909230347.0;242620.0;-7100.954623712542;-7440.331244164966;12.004046149069836;58999.84952546197;27750.0;31249.84952546197
0.46400000000000036;6836033775.0;6880297852.0;197493.0;-6786.865393397477;-7213.242489331718;-19.313027994507138;78522.30757876622;32416.666666666668;46105.64091209957
0.46800000000000036;6810517727.0;6852381592.0;202528.0;-6379.011508183302;-6967.025571263887;1.3712907537437786;101963.47130354389;48000.0;53963.47130354388
0.47200000000000036;6787039070.0;6825624390.0;451737.0;-5869.664147304895;-6650.700133694176;50.80628648329184;127336.84021960176;56250.0;71086.84021960176
0.47600000000000037;6765972197.0;6800729370.0;628943.0;-5266.718010921895;-6207.439062410354;65.72263540418044;150736.5340957499;75416.66666666667;75319.86742908323
0.48000000000000037;6747616752.0;6777965698.0;858255.0;-4588.860815188621;-5663.780091798071;81.68550934295217;169464.29893331855;94750.0;74714.29893331855
0.4840000000000004;6732173143.0;6757877197.0;940791.0;-3860.902280011006;-4975.284781546392;30.24112969615271;181989.63379440375;123500.0;58489.633794403744
0.4880000000000004;6719699364.0;6740480347.0;1120806.0;-3118.44458505663;-4306.811800892479;69.85171104339042;185614.42373859405;147833.33333333334;37781.0904052607
0.4920000000000004;6710091722.0;6726093750.0;1224223.0;-2401.9104082121244;-3543.92493592817;46.58352902297429;179133.54421112637;165583.33333333334;13550.210877793033
