Zeit[sec];Sollposition[°];Istposition[°];Positionsschleppfehler[°];Sollgeschwindigkeit[°/s];Istgeschwindigkeit[°/s];Geschwindigkeitsdifferenz[°/s];Sollbeschleunigung[°/s*s];Istbeschleunigung[°/s*s];Beschleunigungsdifferenz[°/s*s]
0.0;0.0;5493.0;-5493.0;0.0;-0.16856236382822024;-0.1610176361717798;0.0;0.0;0.0
0.004;0.0;5493.0;-5493.0;0.0;-0.42691500626131273;0.0973350062613127;0.0;0.0;0.0
0.008;0.0;5493.0;-5493.0;0.0;0.06901573749528239;-0.39859573749528243;0.0;0.0;0.0
0.012;0.0;5493.0;-5493.0;0.0;0.4545446352492517;-0.7841246352492517;0.0;0.0;0.0
0.016;0.0;5493.0;-5493.0;0.0;0.5055170345419936;-0.8350970345419937;0.0;0.0;0.0
0.02;0.0;0.0;0.0;0.0;-2.2226401692203646;2.2226401692203646;0.0;0.0;0.0
0.024;0.0;5493.0;-5493.0;0.0;-0.08152692649489304;-0.248053073505107;0.0;0.0;0.0
0.028;0.0;5493.0;-5493.0;0.0;0.06150460215813529;-0.39108460215813534;0.0;0.0;0.0
0.032;0.0;5493.0;-5493.0;0.0;-0.7380139823538346;0.4084339823538346;0.0;0.0;0.0
0.036000000000000004;-71.0;5493.0;-5493.0;-0.017803459563073887;-0.614104991607095;0.28452499160709493;-4.450864890768472;0.0;-4.450864890768472
0.04000000000000001;-780.0;5493.0;-5521.0;-0.17742345406116425;-0.340627595983094;0.002308802445390834;-39.90499862452259;0.0;-39.90499862452259
0.04400000000000001;-4269.0;5493.0;-5845.0;-0.8720722543968019;-0.0266041696153939;-0.4050818065578814;-173.66220008390943;0.0;-173.66220008390943
0.048000000000000015;-15799.0;5493.0;-7652.0;-2.8824961538584484;-0.8325629733879715;-0.0784626027135058;-502.6059748654116;0.0;-502.6059748654116
0.05200000000000002;-45048.0;5493.0;-14313.0;-7.312413562013081;-0.6135387329527137;-1.9103449768927354;-1107.4793520386581;0.0;-1107.4793520386581
0.05600000000000002;-106224.0;0.0;-27328.0;-15.29381036280498;-3.3433378305771697;-2.9234515306191806;-1995.3492001979746;0.0;-1995.3492001979746
0.060000000000000026;-216716.0;5493.0;-74625.0;-27.623056599785418;0.7361704615295924;-15.664626598418245;-3082.3115592451095;0.0;-3082.3115592451095
0.06400000000000003;-395368.0;5493.0;-155167.0;-44.66293001992954;0.2355150991594659;-29.680932953575095;-4259.9683550360305;0.0;-4259.9683550360305
0.06800000000000003;-661592.0;5493.0;-292394.0;-66.55622761426248;0.04046264401408466;-51.89096112969465;-5473.324398583236;0.0;-5473.324398583236
0.07200000000000004;-1035153.0;5493.0;-505368.0;-93.39010671314234;1.5357884813351708;-85.10130590632164;-6708.469774719965;0.0;-6708.469774719965
0.07600000000000004;-1535539.0;-10986.0;-797157.0;-125.09647796527325;-0.7457830715425762;-124.15079728547308;-7926.592813032727;-250.0;-7676.592813032727
0.08000000000000004;-2180721.0;-43945.0;-1187414.0;-161.29563926399786;-10.660553089002047;-166.38824465321443;-9049.790324681151;-250.0;-8799.790324681151
0.08400000000000005;-2986002.0;-131836.0;-1656576.0;-201.32011064244628;-24.50762667363238;-214.1500336156344;-10006.117844612107;-1166.6666666666667;-8839.451177945439
0.08800000000000005;-3963312.0;-285645.0;-2210577.0;-244.32759204188827;-40.18276284570764;-269.404469476745;-10751.870349860495;-2250.0;-8501.870349860495
0.09200000000000005;-5120827.0;-664673.0;-2704099.0;-289.37868926792015;-103.21923626991826;-277.1640903685268;-11262.774306507972;-4916.666666666667;-6346.107639841304
0.09600000000000006;-6463079.0;-1807251.0;-2609271.0;-335.562923366868;-297.9652233712775;-120.52868783601338;-11546.058524736964;-13916.666666666666;2370.6081419297025
0.10000000000000006;-7991768.0;-3317871.0;-2328356.0;-382.17217810647753;-366.6379605469422;-80.48944463974419;-11652.313684902381;-26833.333333333332;15181.01964843095
0.10400000000000006;-9706920.0;-4905396.0;-2155920.0;-428.78799317435767;-403.5928169679376;-79.53453688690678;-11653.953766970033;-26583.333333333332;14929.3795663633
0.10800000000000007;-11607904.0;-6844482.0;-1818360.0;-475.2459534968598;-498.2074933684122;-11.275625938379505;-11614.49008062553;-21166.666666666668;9552.176586041138
0.11200000000000007;-13694062.0;-9107666.0;-1342915.0;-521.5396765310056;-557.4247525455318;29.91514355034542;-11573.43075853646;-15500.0;3926.5692414635396
0.11600000000000008;-15964971.0;-11315918.0;-1107976.0;-567.7271544079898;-549.942064717188;-9.8649720120236;-11546.869469246047;-14916.666666666666;3369.7971974206184
0.12000000000000008;-18420452.0;-13645020.0;-937198.0;-613.8701368470216;-586.3416536995887;-9.471263846896022;-11535.745609757952;-10583.333333333334;-952.412276424619
0.12400000000000008;-21060487.0;-16083984.0;-841241.0;-660.0087456102094;-606.4886588757016;-29.737297332078356;-11534.652190796947;-5166.666666666667;-6367.98552413028
0.12800000000000009;-23885125.0;-18814087.0;-638710.0;-706.1595839563611;-680.7908424826843;10.575237214549588;-11537.709586537914;-6916.666666666667;-4621.042919871248
0.1320000000000001;-26894421.0;-21621094.0;-543849.0;-752.3238971191261;-704.6883336616971;-5.979094835190381;-11541.078290691246;-10833.333333333334;-707.744957357912
0.1360000000000001;-30088408.0;-24631348.0;-430365.0;-798.4966148969295;-757.0299614108092;7.015463671239559;-11543.179444450856;-10416.666666666666;-1126.5127777841908
0.1400000000000001;-33467097.0;-27795410.0;-347744.0;-844.6722881671076;-788.9483092424454;-2.2764950044262378;-11543.918317544523;-11083.333333333334;-460.58498421118975
0.1440000000000001;-37030487.0;-31052856.0;-356435.0;-890.8475249792934;-815.5127434480692;-22.40736113736216;-11543.809203046465;-9083.333333333334;-2460.4758697131306
0.1480000000000001;-40778572.0;-34519043.0;-341085.0;-937.0211160805649;-870.5806899925823;-12.593897496914337;-11543.397775317857;-9416.666666666666;-2126.731108651191
0.1520000000000001;-44711345.0;-38237915.0;-257750.0;-983.1932113907544;-930.9979914585583;6.648917098168226;-11543.023827547388;-10250.0;-1293.0238275473869
0.1560000000000001;-48828803.0;-42050171.0;-265723.0;-1029.3644510403412;-959.4354892132973;-11.564972833409342;-11542.809912396706;-11750.0;207.19008760329416
0.16000000000000011;-53130945.0;-46032715.0;-288094.0;-1075.5354232448303;-996.6141520750688;-21.900334790169268;-11542.743051122272;-11500.0;-42.74305112227239
0.16400000000000012;-57617771.0;-50278931.0;-231478.0;-1121.7064667459683;-1064.3257856766224;3.037120185963886;-11542.7608752845;-10666.666666666666;-876.0942086178343
0.16800000000000012;-62289282.0;-54695435.0;-189259.0;-1167.8776888400837;-1102.1785938269459;-2.747933703270519;-11542.805523528841;-12083.333333333334;540.5278098044928
0.17200000000000013;-67145478.0;-59243774.0;-199888.0;-1214.0490627226134;-1138.88880263227;-12.846578790654803;-11542.843470632419;-11916.666666666666;373.8231960342464
0.17600000000000013;-72186361.0;-64066772.0;-120544.0;-1260.2205185853852;-1206.3125954750567;13.16657282272513;-11542.863965692959;-12000.0;457.136034307041
0.18000000000000013;-77411929.0;-69038086.0;-77569.0;-1306.3919967013846;-1242.8920533336125;6.153125184250712;-11542.869528999858;-11500.0;-42.86952899985863
0.18400000000000014;-82822183.0;-74075317.0;-153363.0;-1352.5634646471708;-1262.4385252415398;-25.01950711329755;-11542.866986446541;-11166.666666666666;-376.20031977987446
0.18800000000000014;-88417123.0;-79271851.0;-254541.0;-1398.7349135126703;-1309.1248413565993;-30.575344951516172;-11542.862216374886;-8500.0;-3042.8622163748855
0.19200000000000014;-94196749.0;-84567261.0;-441528.0;-1444.9063472179307;-1328.4572081031838;-68.63365864527373;-11542.858426315091;-7583.333333333333;-3959.5250929817594
0.19600000000000015;-100161060.0;-90115356.0;-560516.0;-1491.077773253489;-1391.7615034286287;-58.64008628632928;-11542.8565088896;-8250.0;-3292.8565088895994
0.20000000000000015;-106310057.0;-96075439.0;-452201.0;-1537.2491976017623;-1488.3057406549556;-1.7683798131740787;-11542.856087068287;-14000.0;2457.1439129317127
0.20400000000000015;-112643740.0;-102211304.0;-352790.0;-1583.4206233057114;-1527.259032277663;-3.0218536019829116;-11542.856425987282;-16833.333333333332;5290.47690734605
0.20800000000000016;-119162108.0;-108435059.0;-350175.0;-1629.5920510480964;-1552.5436264787525;-23.751784296557616;-11542.856935596263;-16083.333333333334;4540.476397737071
0.21200000000000016;-125865163.0;-114796143.0;-394916.0;-1675.7634803046296;-1604.7732316976583;-20.37806558186594;-11542.8573141333;-10166.666666666666;-1376.1906474666343
0.21600000000000016;-132752903.0;-121475830.0;-305741.0;-1721.9349102750773;-1666.8280503117435;0.8558247014425433;-11542.857492611914;-10000.0;-1542.8574926119154
0.22000000000000017;-139825328.0;-128369751.0;-187018.0;-1768.106340361823;-1721.4751376806569;16.45486253963759;-11542.857521686416;-12750.0;1207.1424783135853
0.22400000000000017;-147082440.0;-135401001.0;-115650.0;-1814.2777702814135;-1762.084743587619;15.175118434225396;-11542.857479897633;-14666.666666666666;3123.809186769032
0.22800000000000017;-154524237.0;-142668457.0;7238.0;-1860.4491999862448;-1811.606179611566;25.898404438384887;-11542.857426207831;-12750.0;1207.1425737921686
0.23200000000000018;-162150720.0;-149924927.0;-65547.0;-1906.620629541257;-1817.18744155972;-19.05886344888495;-11542.85738875302;-9750.0;-1792.8573887530206
0.23600000000000018;-169961888.0;-157335205.0;-169209.0;-1952.7920590308124;-1856.4258058307946;-32.2116488244983;-11542.85737238888;-7583.333333333333;-3959.5240390555473
0.24000000000000019;-177957743.0;-164987183.0;-215856.0;-1998.9634885140722;-1913.016753202691;-24.590950982540335;-11542.857370814943;-7833.333333333333;-3709.52403748161
0.2440000000000002;-186138283.0;-172825928.0;-260423.0;-2045.134918017122;-1966.302530902675;-20.150622769998108;-11542.857375762424;-9916.666666666666;-1626.1907090957575
0.2480000000000002;-194503509.0;-180845947.0;-308402.0;-2091.3063475425206;-2009.0847331703287;-26.418589993489604;-11542.857381349677;-12750.0;1207.1426186503231
0.25200000000000017;-203053420.0;-189157104.0;-249928.0;-2137.477777082635;-2085.877967392449;7.711654716837529;-11542.857385028583;-12916.666666666666;1373.8092816380831
0.25600000000000017;-211788017.0;-197704468.0;-139932.0;-2183.6492066286287;-2145.9532273768427;28.21524517012722;-11542.85738649844;-14333.333333333334;2790.475946834894
0.2600000000000002;-220707300.0;-206559448.0;92994.0;-2229.8206361747043;-2213.8327862617257;63.89893451265243;-11542.857386518903;-16583.333333333332;5040.475946814428
0.2640000000000002;-229811269.0;-215430908.0;157714.0;-2275.9920657185385;-2220.626400002352;28.404318707284347;-11542.857385958541;-14750.0;3207.1426140414587
0.2680000000000002;-239099923.0;-224269409.0;4789.0;-2322.163495260052;-2209.893338889911;-37.675671950338256;-11542.857385378396;-9083.333333333334;-2459.5240520450634
0.2720000000000002;-248573264.0;-233179321.0;-261411.0;-2368.334924800115;-2231.4759563655502;-78.23648401762694;-11542.857385015737;-2750.0;-8792.857385015737
0.2760000000000002;-258231289.0;-242451782.0;-349747.0;-2414.5063543396814;-2321.33060898777;-39.85342093635836;-11542.857384891591;-4416.666666666667;-7126.190718224923
0.2800000000000002;-268074001.0;-251954956.0;-392056.0;-2460.6777838792686;-2370.0759334139943;-39.81806605001066;-11542.857384896819;-11583.333333333334;40.475948436514045
0.2840000000000002;-278101398.0;-261661377.0;-415803.0;-2506.8492134191497;-2436.036247551757;-21.454001451822023;-11542.857384970263;-14833.333333333334;3290.4759483630723
0.2880000000000002;-288313481.0;-271724854.0;-267181.0;-2553.020642959233;-2518.214203063115;23.469844519827802;-11542.857385020852;-17000.0;5457.142614979148
0.2920000000000002;-298710250.0;-282057495.0;-34080.0;-2599.192072499479;-2580.368619271999;53.43889118875268;-11542.857385061438;-16666.666666666668;5123.809281605229
0.2960000000000002;-309291705.0;-292461548.0;85747.0;-2645.3635020397655;-2582.898556104364;16.98701848096971;-11542.857385071671;-17583.333333333332;6040.475948261662
0.3000000000000002;-320057845.0;-302662354.0;-182359.0;-2691.5349315800013;-2553.126121555856;-75.0432056077957;-11542.857385058938;-7750.0;-3792.8573850589373
0.3040000000000002;-331008671.0;-313154297.0;-344014.0;-2737.706361120277;-2625.919987312189;-58.12006939173398;-11542.857385068943;-2166.6666666666665;-9376.190718402275
0.3080000000000002;-342144183.0;-324063721.0;-272873.0;-2783.877790660452;-2729.8737749542456;3.930748710075477;-11542.857385043702;-5833.333333333333;-5709.52405171037
0.3120000000000002;-353464380.0;-335181885.0;-177677.0;-2830.049220200678;-2786.070639825594;19.66794404118673;-11542.85738505655;-15666.666666666666;4123.809281610116
0.3160000000000002;-364969263.0;-346552734.0;-14483.0;-2876.2206497409034;-2849.6004771225475;46.81799179794507;-11542.857385056323;-19250.0;7707.1426149436775
0.32000000000000023;-376658832.0;-358148804.0;189247.0;-2922.3920792811186;-2891.981082916239;55.25096805140993;-11542.857385053821;-17083.333333333332;5540.475948279511
0.32400000000000023;-388533087.0;-369624023.0;87440.0;-2968.563508821254;-2865.016487705061;-23.99347669998997;-11542.857385033813;-11000.0;-542.8573850338125
0.32800000000000024;-400592027.0;-381148682.0;-149613.0;-3014.7349383614687;-2902.8717457381163;-46.532828207117745;-11542.857385053707;-3916.6666666666665;-7626.190718387041
0.33200000000000024;-412835653.0;-393118286.0;-126407.0;-3060.906367901725;-2992.6408250231416;-1.5428184622542176;-11542.857385064053;-5416.666666666667;-6126.190718397386
0.33600000000000024;-425263833.0;-405318604.0;-57172.0;-3107.044785437448;-3037.6775987168817;1.476625691254867;-11534.604383930742;-12083.333333333334;548.7289494025927
0.34000000000000025;-437875712.0;-417634277.0;-57215.0;-3152.9697581515607;-3083.0270757540593;0.6651819321577932;-11481.243178528188;-16500.0;5018.756821471811
0.34400000000000025;-450668703.0;-430252075.0;60650.0;-3198.247581754999;-3154.3121426743005;32.96816542365741;-11319.455900859566;-14500.0;3180.544099140434
0.34800000000000025;-463637599.0;-442743530.0;-130505.0;-3242.2236798857807;-3124.2302953535464;-54.25262075378805;-10994.024532695448;-9250.0;-1744.0245326954482
0.35200000000000026;-476773990.0;-455311890.0;-423818.0;-3284.0976364741177;-3142.338977383095;-98.50822040654566;-10468.489147084256;-6083.333333333333;-4385.155813750923
0.35600000000000026;-490065819.0;-468336182.0;-433801.0;-3322.957235598299;-3260.957924596949;-23.638512345545223;-9714.899781045347;-6416.666666666667;-3298.2331143786796
0.36000000000000026;-503497375.0;-481657104.0;-309917.0;-3357.888849629083;-3324.1081615023672;6.25363637113287;-8732.903507695937;-13166.666666666666;4433.763158970729
0.36400000000000027;-517050024.0;-495170288.0;-143051.0;-3388.161863249919;-3379.2204676286187;34.05802583720242;-7568.2534052090205;-18666.666666666668;11098.413261457648
0.36800000000000027;-530703355.0;-508853760.0;61672.0;-3413.3326876491037;-3406.8159297129387;40.829300624994175;-6292.706099796192;-17833.333333333332;11540.62723353714
0.3720000000000003;-544436364.0;-522284546.0;-99400.0;-3433.2520153464816;-3354.5739062302277;-49.3544146606514;-4979.831924344467;-7166.666666666667;2186.8347423222003
0.3760000000000003;-558228706.0;-535902100.0;-166179.0;-3448.0853319237794;-3415.362275805789;-15.69136873661273;-3708.329144324466;-1250.0;-2458.329144324466
0.3800000000000003;-572061997.0;-549711914.0;-112431.0;-3458.3227241237696;-3448.7182418759185;2.9559030878417616;-2559.3480499975385;-2333.3333333333335;-226.01471666420503
0.3840000000000003;-585920727.0;-563598633.0;-33942.0;-3464.682330142452;-3488.0427366611425;33.94883265364297;-1589.9015046705927;-5333.333333333333;3743.4318286627404
0.3880000000000003;-599792757.0;-577743530.0;267818.0;-3468.00720365196;-3534.843705728686;90.12856190728189;-831.218377377013;-12083.333333333334;11252.11495595632
0.3920000000000003;-613669669.0;-591558838.0;219271.0;-3469.228018355889;-3449.386121582368;-3.420945638941248;-305.20367598228404;-5500.0;5194.796324017716
0.3960000000000003;-627546712.0;-605104980.0;-108474.0;-3469.2605414571;-3401.7286843454544;-73.25151158066319;-8.13077530267492;3583.3333333333335;-3591.4641086360084
0.4000000000000003;-641422035.0;-618865356.0;-225034.0;-3468.830497145239;-3451.47243453324;-31.263365512952987;107.51107796522774;8833.333333333334;-8725.822255368106
0.4040000000000003;-655295539.0;-632889404.0;-77346.0;-3468.375858481602;-3509.669807940972;35.939202899134216;113.65966590926746;2250.0;-2136.3403340907325
0.4080000000000003;-669167841.0;-647089233.0;247872.0;-3468.0753185174963;-3544.4522048858416;90.67176507611975;75.13499102640253;-10666.666666666666;10741.801657693068
0.4120000000000003;-683039611.0;-660860596.0;146196.0;-3467.942447651812;-3431.439286119184;-28.04831686100397;33.217716421063415;-8000.0;8033.217716421063
0.4160000000000003;-696911296.0;-674401245.0;-185253.0;-3467.920938955786;-3396.7221948674187;-82.41738340428947;5.37717400652582;6500.0;-6494.622825993474
0.4200000000000003;-710783088.0;-688298950.0;-159287.0;-3467.947862977403;-3468.1004765539633;-9.391441776180272;-6.731005404276402;8583.333333333334;-8590.064338737611
0.4240000000000003;-724655013.0;-702246094.0;-83871.0;-3467.981192340411;-3485.8989858431437;12.934985905966641;-8.332340751962874;1833.3333333333333;-1841.6656740852961
0.4280000000000003;-738527025.0;-716390991.0;189182.0;-3468.002833336065;-3531.664349064196;75.05434927307397;-5.410248913563009;-9333.333333333334;9327.92308441977
0.43200000000000033;-752399069.0;-730250244.0;176476.0;-3468.0107704641064;-3444.3461266733307;-13.054890694477763;-1.9842820103121994;-6916.666666666667;6914.682384656355
0.43600000000000033;-766271109.0;-743757935.0;-187857.0;-3468.0098748652267;-3390.494138872863;-88.7831346077337;0.22389971991287894;6583.333333333333;-6583.10943361342
0.44000000000000034;-780143133.0;-757743530.0;-74304.0;-3468.005692666473;-3508.0802072513666;35.61159838482672;1.045549688456049;6833.333333333333;-6832.287783644877
0.44400000000000034;-794015140.0;-771849976.0;160108.0;-3468.0017880427877;-3516.063610284069;57.66186834765176;0.9761559213075088;-1000.0;1000.9761559213075
0.44800000000000034;-807887139.0;-785775146.0;213260.0;-3467.9995027796117;-3481.5753836515337;26.366814602267823;0.5713157939908342;-8250.0;8250.57131579399
0.45200000000000035;-821759135.0;-799623413.0;189523.0;-3467.9987508016075;-3455.2546643618093;-1.374860488489503;0.18799450106143922;-3833.3333333333335;3833.521327834395
0.45600000000000035;-835631131.0;-813229980.0;-75907.0;-3467.9989030392694;-3413.4896694122813;-59.063968610019856;-0.03805941548762348;8833.333333333334;-8833.37139274882
0.46000000000000035;-849503129.0;-826995850.0;-182033.0;-3467.999356797795;-3450.4172659389715;-28.503529628609613;-0.11343963137733226;7000.0;-7000.113439631377
0.46400000000000036;-863375129.0;-840910034.0;-139846.0;-3467.9997542694796;-3482.2926795205713;5.902837465159337;-0.0993679211660492;916.6666666666666;-916.7660345878327
0.46800000000000036;-877247129.0;-854961548.0;39669.0;-3467.9999746921635;-3513.9428705702976;48.323498839929925;-0.05510567098099273;-6333.333333333333;6333.278227662352
0.47200000000000036;-891119130.0;-868952637.0;158758.0;-3468.000038893147;-3488.188684382524;29.71432504783388;-0.01605024590389803;-8000.0;7999.983949754096
0.47600000000000037;-904991131.0;-882597656.0;-68223.0;-3468.000016023239;-3410.0514783083204;-62.0419005469862;0.005717477051803144;916.6666666666666;-916.6609491896148
0.48000000000000037;-918863131.0;-896390991.0;-146889.0;-3467.9999675307895;-3460.248932953737;-16.56443649566836;0.012123112355766352;6916.666666666667;-6916.654543554311
0.4840000000000004;-932735132.0;-910393066.0;-16815.0;-3467.9999278373284;-3488.212471128724;19.20357419798711;0.009923365269060014;2083.3333333333335;-2083.3234099680644
0.4880000000000004;-946607132.0;-924268799.0;-13082.0;-3467.9999071830644;-3484.4262252710823;15.641353193991108;0.005163566015653487;-1666.6666666666667;1666.6718302326824
0.4920000000000004;-960479132.0;-938419189.0;265307.0;-3467.999902192564;-3531.8893099811485;79.80781010034025;0.0012476250503823394;-7916.666666666667;7916.667914291717
