Zeit[sec];Sollposition[°];Istposition[°];Positionsschleppfehler[°];Sollgeschwindigkeit[°/s];Istgeschwindigkeit[°/s];Geschwindigkeitsdifferenz[°/s];Sollbeschleunigung[°/s*s];Istbeschleunigung[°/s*s];Beschleunigungsdifferenz[°/s*s]
0.0;-9979199999.0;-9979211426.0;11427.0;0.0;-1.8512396148964763;2.5368596148519096;0.0;83.33333333333333;-83.33333333333333
0.004;-9979199999.0;-9979194946.0;-5053.0;0.0;2.823821409702301;-3.127001409754916;0.0;83.33333333333333;-83.33333333333333
0.008;-9979199999.0;-9979189453.0;-10546.0;0.0;7.131767339788378;-7.764527339710614;0.0;0.0;0.0
0.012;-9979199999.0;-9979200439.0;440.0;0.0;-1.9918474701941014;2.018247470218856;0.0;83.33333333333333;-83.33333333333333
0.016;-9979199999.0;-9979200439.0;440.0;0.0;-0.6417957294806839;0.6681957295054386;0.0;-83.33333333333333;83.33333333333333
0.02;-9979199999.0;-9979194946.0;-5053.0;0.0;1.1012251714393497;-1.4044051714919645;0.0;0.0;0.0
0.024;-9979199999.0;-9979194946.0;-5053.0;0.0;0.5491439660862089;-0.8523239661388237;0.0;-83.33333333333333;83.33333333333333
0.028;-9979199999.0;-9979194946.0;-5053.0;0.0;0.9276492309346795;-1.2308292309872944;0.0;0.0;0.0
0.032;-9979199999.0;-9979200439.0;440.0;0.0;-0.9629832668155432;0.989383266840298;0.0;0.0;0.0
0.036000000000000004;-9979199999.0;-9979211426.0;11427.0;0.0;-5.55366852337867;6.239288523334103;0.0;0.0;0.0
0.04000000000000001;-9979199999.0;-9979200439.0;440.0;0.0;-0.979849705144763;1.0062497051695178;0.0;0.0;0.0
0.04400000000000001;-9979199999.0;-9979194946.0;-5053.0;0.0;2.139644366554916;-2.442824366607531;0.0;0.0;0.0
0.048000000000000015;-9979199999.0;-9979200439.0;440.0;0.0;1.5713788189142943;-1.5449788188895395;0.0;0.0;0.0
0.05200000000000002;-9979199999.0;-9979194946.0;-5053.0;0.0;2.1008847530707717;-2.4040647531233867;0.0;83.33333333333333;-83.33333333333333
0.05600000000000002;-9979199999.0;-9979194946.0;-5053.0;0.0;1.5277894768565894;-1.8309694769092042;0.0;0.0;0.0
0.060000000000000026;-9979300977.0;-9979205933.0;5934.0;-25.2443269297056;-1.9380473557859659;2.294087355802529;-6311.0817324264;0.0;-6311.0817324264
0.06400000000000003;-9979392742.0;-9979205933.0;-34102.0;-22.941307872222293;-2.9939670191556216;-9.061134165880507;575.7547643708269;-83.33333333333333;659.0880977041603
0.06800000000000003;-9979506981.0;-9979216919.0;-119850.0;-28.559683451028143;-1.8099643236473204;-29.56433555634824;-1404.5938947014624;-250.0;-1154.5938947014624
0.07200000000000004;-9979629836.0;-9979271851.0;-165647.0;-30.713722707434826;-10.374115420036018;-24.747104834260846;-538.5098141016708;-750.0;211.49018589832912
0.07600000000000004;-9979755974.0;-9979326782.0;-228240.0;-31.534532883753712;-13.238105817086995;-29.83710037282168;-205.2025440797216;-1083.3333333333333;878.1307892536116
0.08000000000000004;-9979887225.0;-9979409180.0;-269948.0;-32.8126834546936;-20.04941036374122;-27.17400942963719;-319.5376427349714;-1083.3333333333333;763.7956905983618
0.08400000000000005;-9980022397.0;-9979508057.0;-299217.0;-33.79302747601142;-28.768299983009697;-21.221210196328194;-245.0860053294548;-916.6666666666666;671.5806613372118
0.08800000000000005;-9980153059.0;-9979612427.0;-327623.0;-32.665688488763436;-24.556612936004996;-28.29465244176481;281.8347468119953;-1250.0;1531.8347468119953
0.09200000000000005;-9980271782.0;-9979705811.0;-367599.0;-29.68068948504887;-24.275513737656176;-31.120737241306472;746.2497509286417;-666.6666666666666;1412.9164175953083
0.09600000000000006;-9980372750.0;-9979777222.0;-422143.0;-25.24187312920559;-20.856329737640916;-35.96103878861743;1109.70408896082;83.33333333333333;1026.3707556274865
0.10000000000000006;-9980444805.0;-9979810181.0;-500937.0;-18.01383929186518;-8.920474940694868;-49.07400344428352;1807.008459335102;1166.6666666666667;640.3417926684353
0.10400000000000006;-9980479498.0;-9979815674.0;-585053.0;-8.673184895670769;4.319145983956754;-61.82440532420575;2335.1635990486034;1416.6666666666667;918.4969323819365
0.10800000000000007;-9980477125.0;-9979870605.0;-587533.0;0.5931963565014562;-13.254782753273846;-36.349964778914455;2316.595313043056;1166.6666666666667;1149.9286463763895
0.11200000000000007;-9980440834.0;-9979832153.0;-646200.0;9.072784713404602;2.729725095130503;-46.55566500829266;2119.897089225786;1333.3333333333333;786.5637558924531
0.11600000000000008;-9980374663.0;-9979832153.0;-630596.0;16.542612955717136;3.8798329562172293;-37.81466751237655;1867.4570605781335;583.3333333333334;1284.1237272448002
0.12000000000000008;-9980284726.0;-9979832153.0;-582657.0;22.484360251972614;-3.9804946816265585;-18.994155510948453;1485.4368240638696;666.6666666666666;818.770157397203
0.12400000000000008;-9980177994.0;-9979843140.0;-496251.0;26.683097635781106;-4.533721279643476;-6.386684326296978;1049.684345952123;-333.3333333333333;1383.0176792854563
0.12800000000000009;-9980059655.0;-9979821167.0;-421767.0;29.58456468382196;-4.035774013005197;2.8440331068030775;725.3667620102133;416.6666666666667;308.70009534354665
0.1320000000000001;-9979935628.0;-9979804688.0;-327011.0;31.00676005797428;9.485169726833702;-1.2969477187968064;355.54884353808;-500.0;855.5488435380801
0.1360000000000001;-9979816346.0;-9979832153.0;-179020.0;29.82064250297456;-11.513451491743327;30.903693636155374;-296.52938874992964;500.0;-796.5293887499296
0.1400000000000001;-9979710430.0;-9979793701.0;-95359.0;26.478812590609113;1.1808691097050905;23.625740694842357;-835.457478091362;-333.3333333333333;-502.12414475802865
0.1440000000000001;-9979621776.0;-9979777222.0;2172.0;22.163548721706483;2.5775120053440332;26.05541706097609;-1078.8159672256575;666.6666666666666;-1745.482633892324
0.1480000000000001;-9979554273.0;-9979755249.0;79349.0;16.875862677320253;5.7298689475804565;23.818529979666643;-1321.9215110965577;-166.66666666666666;-1155.254844429891
0.1520000000000001;-9979509433.0;-9979738770.0;143239.0;11.210032453402347;8.99280716843158;19.693881405993857;-1416.4575559794766;166.66666666666666;-1583.1242226461432
0.1560000000000001;-9979483004.0;-9979755249.0;218360.0;6.6070811147005175;-5.4343710170164705;33.196403074569616;-1150.7378346754574;-166.66666666666666;-984.0711680087907
0.16000000000000011;-9979467599.0;-9979733276.0;234060.0;3.8512417666198075;3.4793932921141386;19.98243910056798;-688.9598370201775;-166.66666666666666;-522.2931703535108
0.16400000000000012;-9979456346.0;-9979749756.0;272706.0;2.813422159714387;-4.644631146430969;26.548395437661128;-259.4549017263551;-166.66666666666666;-92.78823505968845
0.16800000000000012;-9979444839.0;-9979727783.0;264556.0;2.876751629085234;5.1955471635162835;14.13372284111282;15.832367342711763;-250.0;265.83236734271173
0.17200000000000013;-9979431264.0;-9979727783.0;275934.0;3.3936442188858154;6.600457378484309;12.800194900531368;129.2231474501453;0.0;129.2231474501453
0.17600000000000013;-9979415548.0;-9979738770.0;299247.0;3.92902993033471;-2.0612001339420676;23.09734052732761;133.84642786222366;0.0;133.84642786222366
0.18000000000000013;-9979398365.0;-9979727783.0;302672.0;4.295732551237867;5.470929522000254;16.29227809850281;91.67565522578924;0.0;91.67565522578924
0.18400000000000014;-9979380449.0;-9979722290.0;313464.0;4.479058742270762;3.7721864450797438;19.106938319073965;45.83154775822385;166.66666666666666;-120.83511890844281
0.18800000000000014;-9979362286.0;-9979722290.0;330929.0;4.540621197290716;2.0135276189148428;22.20848225444565;15.390613754988403;-83.33333333333333;98.72394708832174
0.19200000000000014;-9979344088.0;-9979705811.0;332459.0;4.5495760119524284;-0.589668398655951;25.039601515520115;2.23870366542811;416.6666666666667;-414.4279630012386
0.19600000000000015;-9979325882.0;-9979694824.0;339648.0;4.551528299220305;1.9659602358788253;22.95673068796218;0.4880718169690823;-83.33333333333333;83.82140515030241
0.20000000000000015;-9979307622.0;-9979678345.0;341370.0;4.564947317049651;4.827806450247765;20.204691143546135;3.354754457336462;166.66666666666666;-163.3119122093302
0.20400000000000015;-9979289261.0;-9979656372.0;337624.0;4.59023929442765;3.5699157220572233;21.244361568825916;6.322994344499788;83.33333333333333;-77.01033898883354
0.20800000000000016;-9979270779.0;-9979645386.0;344938.0;4.62044815888549;4.379857172973454;20.891319390823057;7.5522161144601085;0.0;7.5522161144601085
0.21200000000000016;-9979199999.0;-9979634399.0;352359.0;17.694962070233863;3.3350111572518943;22.40859728476854;3268.628477837093;83.33333333333333;3185.29514450376
0.21600000000000016;-9979199999.0;-9979623413.0;380590.0;0.0;4.390035119436681;28.24947651092352;-4423.740517558466;-333.3333333333333;-4090.4071842251324
0.22000000000000017;-9979199999.0;-9979590454.0;390041.0;0.0;9.970319077074528;24.034718536239815;0.0;333.3333333333333;-333.3333333333333
0.22400000000000017;-9979199999.0;-9979573975.0;373976.0;0.0;4.1352841069474815;18.40695731146772;0.0;333.3333333333333;-333.3333333333333
0.22800000000000017;-9979199999.0;-9979562988.0;362989.0;0.0;5.388788589976728;16.39055141005827;0.0;-83.33333333333333;83.33333333333333
0.23200000000000018;-9979199999.0;-9979562988.0;362989.0;0.0;3.2038983030468224;18.57544169698817;0.0;-416.6666666666667;416.6666666666667
0.23600000000000018;-9979139892.0;-9979562988.0;362989.0;15.026764815117325;-0.10709633368253708;21.886436333717533;3756.6912037793313;-416.6666666666667;4173.357870445998
0.24000000000000019;-9979121307.0;-9979541016.0;364849.0;4.646243378426743;5.9792292467355725;21.869588209353786;-2595.1303591726455;83.33333333333333;-2678.4636925059785
0.2440000000000002;-9979102822.0;-9979535522.0;402647.0;4.621249557702303;1.282293046824634;33.69952976420485;-6.2484551811101685;250.0;-256.24845518111016
0.2480000000000002;-9979084460.0;-9979524536.0;410450.0;4.590498810393942;2.755595112018287;26.568561974813452;-7.68768682709009;0.0;-7.68768682709009
0.25200000000000017;-9979064493.0;-9979519043.0;423394.0;4.991976557218917;1.9780731065794825;28.034770708466215;100.36943670624376;-83.33333333333333;183.7027700395771
0.25600000000000017;-9979038505.0;-9979475098.0;398448.0;6.4968961181326215;12.22256292499602;16.434175719160095;376.22989022842603;166.66666666666666;209.56322356175934
0.2600000000000002;-9979003271.0;-9979469604.0;415299.0;8.808526587392729;1.3483470425978303;29.155894197470104;577.9076173150269;416.6666666666667;161.24095064836013
0.2640000000000002;-9978956862.0;-9979420166.0;395479.0;11.602111267537616;11.452375046968461;19.680968545047676;698.3961700362217;416.6666666666667;281.7295033695551
0.2680000000000002;-9978895764.0;-9979392700.0;407624.0;15.274608062497286;10.275159713357688;24.084874840148707;918.1241987399176;166.66666666666666;751.457532073251
0.2720000000000002;-9978818785.0;-9979343262.0;410353.0;19.244844958069674;11.580778686240315;26.0822315175606;992.5592238930969;416.6666666666667;575.8925572264302
0.2760000000000002;-9978729512.0;-9979266357.0;400757.0;22.318152664455994;20.50064536511898;20.372001055558425;768.3269265965799;666.6666666666666;101.66025992991334
0.2800000000000002;-9978633212.0;-9979189453.0;405613.0;24.075094403436193;22.179012194029987;22.597868142473885;439.23543474504976;916.6666666666666;-477.43123192161687
0.2840000000000002;-9978535048.0;-9979123535.0;431682.0;24.54096338387661;10.991250759415328;37.90641418997476;116.46724511010387;750.0;-633.5327548898962
0.2880000000000002;-9978435140.0;-9979041138.0;446283.0;24.97700897590209;17.832876104407013;33.193613490034785;109.01139800637071;166.66666666666666;-57.65526866029594
0.2920000000000002;-9978325691.0;-9978925781.0;429771.0;27.36215197115533;26.697493948042393;23.799884998797495;596.28574881331;583.3333333333334;12.952415479976608
0.2960000000000002;-9978200581.0;-9978854370.0;462040.0;31.27743688636859;21.43194421221316;32.21058173887071;978.8212288033149;-83.33333333333333;1062.1545621366483
0.3000000000000002;-9978065415.0;-9978782959.0;506232.0;33.79158122310748;22.9719555016309;36.30249031487266;628.5360841847219;83.33333333333333;545.2027508513885
0.3040000000000002;-9977935227.0;-9978706055.0;558333.0;32.54695089639338;22.903193282574417;42.848101427255216;-311.1575816785237;-500.0;188.84241832147632
0.3080000000000002;-9977822481.0;-9978574219.0;559630.0;28.186566910580048;28.62426099445671;38.236912437017764;-1090.0959964533338;750.0;-1840.0959964533338
0.3120000000000002;-9977738437.0;-9978469849.0;578562.0;21.01092398261754;26.085443303354086;39.45369622955576;-1793.9107319906266;916.6666666666666;-2710.577398657293
0.3160000000000002;-9977700100.0;-9978398438.0;608619.0;9.584313078569066;19.263172060765328;42.6210536732889;-2856.652726012119;83.33333333333333;-2939.9860593454523
0.32000000000000023;-9977716064.0;-9978359985.0;636257.0;-3.990898119354719;6.287508661948144;48.41040742078365;-3393.8027994809463;-1000.0;-2393.8027994809463
0.32400000000000023;-9977783112.0;-9978321533.0;614879.0;-16.762088442247688;8.383572402454913;32.778074347044566;-3192.797580723242;-1833.3333333333333;-1359.464247389909
0.32800000000000024;-9977898917.0;-9978348999.0;606445.0;-28.951171366307655;-1.4431565696671604;28.854923290396055;-3047.2707310149917;-1666.6666666666667;-1380.604064348325
0.33200000000000024;-9978058615.0;-9978376465.0;547831.0;-39.9245780791437;-13.901451829403639;25.25127365546778;-2743.3516782090114;-1500.0;-1243.3516782090112
0.33600000000000024;-9978248271.0;-9978458862.0;497306.0;-47.41399983909167;-13.350573324270547;9.958398063559706;-1872.3554399869934;-2166.6666666666665;294.31122667967327
0.34000000000000025;-9978450722.0;-9978464355.0;331480.0;-50.612820004081314;-9.402483629643918;-13.538435850181571;-799.7050412474102;-333.3333333333333;-466.371707914077
0.34400000000000025;-9978654944.0;-9978596191.0;268763.0;-51.05536328455753;-24.306841461084783;-8.205777261197223;-110.63582011905382;-1916.6666666666667;1806.030846547613
0.34800000000000025;-9978849832.0;-9978618164.0;87657.0;-48.72196641961544;-12.543512422025204;-32.96660599110196;583.349216235522;583.3333333333334;0.015882902188678827
0.35200000000000026;-9979013839.0;-9978717041.0;-13976.0;-41.00195627675509;-22.512345647513868;-28.453829212381684;1930.0025357150882;-1083.3333333333333;3013.3358690484215
0.35600000000000026;-9979128121.0;-9978728027.0;-185689.0;-28.57042572540148;-6.22681567440927;-50.58929959588832;3107.8826378384015;1000.0;2107.8826378384015
0.36000000000000026;-9979199999.0;-9978782959.0;-275230.0;-17.9695969323952;-12.462753339454531;-40.16932975080138;2650.207198251571;416.6666666666667;2233.540531584904
0.36400000000000027;-9979199999.0;-9978733521.0;-422429.0;0.0;7.569206223674119;-57.355149969877274;4492.399233098799;1416.6666666666667;3075.732566432133
0.36800000000000027;-9979199999.0;-9978782959.0;-416618.0;0.0;-9.90973659440875;-25.994390160531097;0.0;1000.0;-1000.0
0.3720000000000003;-9979199999.0;-9978689575.0;-510424.0;0.0;21.981582262016833;-52.71231286904356;0.0;1000.0;-1000.0
0.3760000000000003;-9979199999.0;-9978717041.0;-482958.0;0.0;-8.117821978390216;-20.859658021586476;0.0;916.6666666666666;-916.6666666666666
0.3800000000000003;-9979199999.0;-9978678589.0;-521410.0;0.0;6.835495518043637;-38.12009551799161;0.0;0.0;0.0
0.3840000000000003;-9979199999.0;-9978695068.0;-504931.0;0.0;-8.10949890883267;-22.18636109116019;0.0;83.33333333333333;-83.33333333333333
0.3880000000000003;-9979199999.0;-9978689575.0;-510424.0;0.0;3.3943410978764295;-34.019781097877406;0.0;-1416.6666666666667;1416.6666666666667
0.3920000000000003;-9979199999.0;-9978728027.0;-471972.0;0.0;-11.679407617576421;-16.638912382384028;0.0;0.0;0.0
0.3960000000000003;-9979199999.0;-9978744507.0;-455492.0;5.770798139949201e-10;-3.649194782294333;-23.68032521765807;1.4426995349873003e-07;-1166.6666666666667;1166.6666668109367
0.4000000000000003;-9979199999.0;-9978788452.0;-411547.0;0.0;-10.718987579740585;-13.973832420003617;-1.4426995349873003e-07;0.0;-1.4426995349873003e-07
0.4040000000000003;-9979147251.0;-9978843384.0;-356615.0;13.187039751679105;-12.562401031687855;-8.834498967960926;3296.7599379197763;-1083.3333333333333;4380.093271253109
0.4080000000000003;-9979071334.0;-9978887329.0;-291755.0;18.979277424109927;-11.104403584502638;-1.1724412014326866;1448.0594181077056;-250.0;1698.0594181077056
0.4120000000000003;-9978954199.0;-9978903809.0;-213650.0;29.283755739122586;-3.156134181201458;5.743437855345598;2576.1195787531647;-166.66666666666666;2742.7862454198316
0.4160000000000003;-9978808616.0;-9978881836.0;-143500.0;36.39585803555411;5.07289921489358;9.348003961074653;1778.0255741078815;1166.6666666666667;611.3589074412149
0.4200000000000003;-9978652690.0;-9978815918.0;-81245.0;38.981442402984676;21.938614056557416;5.22990131383035;646.3960918576408;1666.6666666666667;-1020.2705748090259
0.4240000000000003;-9978493910.0;-9978689575.0;-58071.0;39.694908334294595;32.30293476064503;1.592134602494447;178.36648282747979;2833.3333333333335;-2654.9668505058535
0.4280000000000003;-9978330766.0;-9978574219.0;-16430.0;40.7859680820978;30.627576441936196;7.635794146512129;272.7649369508018;2416.6666666666665;-2143.901729715865
0.43200000000000033;-9978165947.0;-9978480835.0;50680.0;41.20494671723059;26.54811552876979;16.616000483297313;104.74465878319705;1416.6666666666667;-1311.9220078834696
0.43600000000000033;-9978011837.0;-9978376465.0;110092.0;38.52745786973224;25.53718575629592;22.01402787979086;-669.3722118745882;0.0;-669.3722118745882
0.44000000000000034;-9977879235.0;-9978338013.0;232203.0;33.150331301517326;10.214811816237868;43.85827745580374;-1344.281642053728;-1083.3333333333333;-260.9483087203948
0.44400000000000034;-9977775702.0;-9978299561.0;339397.0;25.883495834833766;6.458284422777593;50.3167351914502;-1816.7088666708898;-1166.6666666666667;-650.0422000042232
0.44800000000000034;-9977714172.0;-9978299561.0;460599.0;15.382407048996543;0.629926652148366;57.30666453207392;-2625.272196459306;-2000.0;-625.272196459306
0.45200000000000035;-9977703317.0;-9978338013.0;586101.0;2.71364451828526;-9.742321563445032;66.67093888821424;-3167.1906326778208;-1750.0;-1417.1906326778205
0.45600000000000035;-9977740375.0;-9978381958.0;671730.0;-9.26430185845868;-17.468147412508728;68.19291788461061;-2994.486594185985;-1500.0;-1494.486594185985
0.46000000000000035;-9977818630.0;-9978354492.0;636419.0;-19.563882546718823;5.119220968469977;31.104725997283868;-2574.8951720650357;-583.3333333333334;-1991.5618387317024
0.46400000000000036;-9977930527.0;-9978447876.0;676691.0;-27.974244434238113;-20.39961685874313;47.72333546793192;-2102.5904718798224;-333.3333333333333;-1769.2571385464892
0.46800000000000036;-9978066485.0;-9978420410.0;557873.0;-33.98939219191494;11.23574142291397;-0.6014719405105122;-1503.7869394192062;-500.0;-1003.7869394192063
0.47200000000000036;-9978216118.0;-9978524780.0;541003.0;-37.40836137492654;-24.30554605075717;26.455848981475107;-854.7422957529012;250.0;-1104.742295752901
0.47600000000000037;-9978371898.0;-9978475342.0;350326.0;-38.94508113828077;9.244019823722542;-23.534174868826113;-384.1799408385569;-166.66666666666666;-217.51327417189023
0.48000000000000037;-9978526804.0;-9978546753.0;269747.0;-38.72652021534147;-20.137698040470482;-1.675095686769648;54.64023073482416;1166.6666666666667;-1112.0264359318426
0.4840000000000004;-9978669865.0;-9978508301.0;75898.0;-35.76519757385153;8.666397778309882;-42.961938708286894;740.3306603724857;-500.0;1240.3306603724857
0.4880000000000004;-9978792850.0;-9978568726.0;-13892.0;-30.746281927950616;-15.256585448332132;-23.130617240713498;1254.7289114752286;833.3333333333334;421.3955781418953
0.4920000000000004;-9978893052.0;-9978563232.0;-154556.0;-25.050451953678742;5.5535079617202285;-48.619495402391784;1423.9574935679684;-1000.0;2423.9574935679684
0.4960000000000004;-9978967818.0;-9978612671.0;-219187.0;-18.69146245631641;-17.278763561822473;-24.38983848755194;1589.7473743405835;666.6666666666666;923.0807076739168
0.5000000000000003;-9979016909.0;-9978590698.0;-331410.0;-12.272755162931285;6.051012509301305;-48.49819849017142;1604.676823346281;-583.3333333333334;2188.0101566796143
