Zeit[sec];Sollposition[°];Istposition[°];Positionsschleppfehler[°];Sollgeschwindigkeit[°/s];Istgeschwindigkeit[°/s];Geschwindigkeitsdifferenz[°/s];Sollbeschleunigung[°/s*s];Istbeschleunigung[°/s*s];Beschleunigungsdifferenz[°/s*s]
0.0;0.0;5493.0;-5493.0;-0.0;0.020841873657467026;-0.350421873657467;0.0;0.0;0.0
0.004;0.0;5493.0;-5493.0;-0.0;-0.04665055316703219;-0.2829294468329678;0.0;0.0;0.0
0.008;0.0;5493.0;-5493.0;-0.0;-0.13761362453419226;-0.19196637546580772;0.0;0.0;0.0
0.012;0.0;5493.0;-5493.0;-0.0;-0.2792101078171823;-0.05036989218281768;0.0;0.0;0.0
0.016;0.0;5493.0;-5493.0;-0.0;0.9130082730521262;-1.2425882730521263;0.0;0.0;0.0
0.02;0.0;0.0;0.0;-0.0;-1.5107557798424096;1.5107557798424096;0.0;0.0;0.0
0.024;0.0;5493.0;-5493.0;-0.0;0.7646316007751254;-1.0942116007751252;0.0;0.0;0.0
0.028;0.0;5493.0;-5493.0;-0.0;-0.12497897348935659;-0.20460102651064338;0.0;0.0;0.0
0.032;0.0;5493.0;-5493.0;-0.0;0.042242772565006935;-0.3718227725650069;0.0;0.0;0.0
0.036000000000000004;116.0;5493.0;-5493.0;0.029123107300067876;2.3682691986776483;-2.6978491986776483;7.280776825016969;-83.33333333333333;90.6141101583503
0.04000000000000001;1277.0;0.0;46.0;0.29023136047609027;-2.9965969381181736;3.010903795114099;65.2770632940056;83.33333333333333;-18.05627003932773
0.04400000000000001;6983.0;5493.0;-4917.0;1.426545989459671;0.06471756609372137;-0.22725975943265286;284.0786572458952;0.0;284.0786572458952
0.048000000000000015;25844.0;10986.0;-7453.0;4.715220908810277;2.5233780298332764;-2.2313256050522274;822.1687298376515;83.33333333333333;738.8353965043182
0.05200000000000002;73691.0;5493.0;8935.0;11.961731596909464;-0.20785861093700186;3.467754726844373;1811.6276720247968;-83.33333333333333;1894.96100535813
0.05600000000000002;173762.0;5493.0;39211.0;25.017793797258467;0.18553490656877336;9.736204683737762;3264.0155500872506;0.0;3264.0155500872506
0.060000000000000026;354507.0;5493.0;107594.0;45.186118937864556;-0.08493985849612845;23.63637609330901;5042.081285151522;0.0;5042.081285151522
0.06400000000000003;646747.0;5493.0;239345.0;73.06014309867925;-0.9770684269118772;48.275487647885164;6968.506040203673;0.0;6968.506040203673
0.06800000000000003;1082241.0;10986.0;458330.0;108.87345526711822;0.360270856062267;83.25908934981707;8953.328042109742;0.0;8953.328042109742
0.07200000000000004;1693316.0;38452.0;779249.0;152.7686284231037;5.13390550773219;128.71727192241323;10973.793288996372;333.3333333333333;10640.459955663038
0.07600000000000004;2511853.0;76904.0;1245067.0;204.63428120963903;10.616240144638281;190.15514179076064;12966.41319663383;500.0;12466.41319663383
0.08000000000000004;3567250.0;203247.0;1811026.0;263.8492924813413;33.8729527015274;247.86395837040195;14803.75281792557;1583.3333333333333;13220.419484592237
0.08400000000000005;4884537.0;455933.0;2469572.0;329.32179070460563;66.19145222716419;309.79107540785753;16368.12455581608;3500.0;12868.12455581608
0.08800000000000005;6483233.0;1312866.0;2770484.0;399.6739315957101;246.63359699819378;209.05659506421696;17588.035222776114;9416.666666666666;8171.368556109448
0.09200000000000005;8376709.0;3240967.0;2269709.0;473.36904314864245;476.55601473315164;16.458212663298468;18423.77788823309;28833.333333333332;-10409.555445100243
0.09600000000000006;10572380.0;5267944.0;1956655.0;548.9177532462516;495.0381521468615;50.841820117934446;18887.177524402276;38750.0;-19862.822475597724
0.10000000000000006;13073027.0;7212524.0;2023640.0;625.1617170769696;496.92454400357065;127.3849749559231;19060.990957679507;30666.666666666668;-11605.67570898716
0.10400000000000006;15878693.0;9552612.0;1998370.0;701.4164123694059;589.7444653225026;108.86236004746559;19063.67382310907;14000.0;5063.67382310907
0.10800000000000007;18988345.0;12249756.0;1921022.0;777.4128870238441;678.8946427864528;91.31544751878334;18999.11866360955;10000.0;8999.11866360955
0.11200000000000007;22400908.0;15227051.0;1868131.0;853.14070040184;744.6008319079004;98.5880503618447;18931.953344498994;18916.666666666668;15.28667783232504
0.11600000000000008;26115687.0;18588867.0;1734285.0;928.694716709602;844.0210290970844;67.02856084037296;18888.504076940477;21416.666666666668;-2528.1625897261897
0.12000000000000008;30132391.0;22302246.0;1551518.0;1004.175946859751;928.5622442973633;47.18180538248782;18870.307537537257;21416.666666666668;-2546.35912912941
0.12400000000000008;34450991.0;26460571.0;1225910.0;1079.6500224998179;1037.5565203315266;-5.8227745759152185;18868.51891001672;22500.0;-3631.481089983282
0.12800000000000009;39071568.0;30838623.0;982490.0;1155.1441034346703;1098.021172158632;-5.413806422937114;18873.520233713123;23166.666666666668;-4293.146432953545
0.1320000000000001;43994209.0;35403442.0;854231.0;1230.6602266320774;1149.0293710526005;11.364504030918397;18879.030799351767;19166.666666666668;-287.6358673149007
0.1360000000000001;49218970.0;40292358.0;703887.0;1306.1900981970255;1222.211198930045;4.664739282494793;18882.467891237015;16666.666666666668;2215.8012245703453
0.1400000000000001;54745869.0;45263672.0;773229.0;1381.724804390962;1248.8693288029035;57.68857446607285;18883.676548484116;13666.666666666666;5217.009881817452
0.1440000000000001;60574904.0;50679932.0;699753.0;1457.2587966218;1358.487034140082;19.194016991853914;18883.498057709516;14833.333333333334;4050.1647243761827
0.1480000000000001;66706065.0;56376343.0;648263.0;1532.790096779492;1430.1194361481523;20.006609774602794;18882.825039422984;17333.333333333332;1549.4917060896505
0.1520000000000001;73139341.0;62413330.0;558329.0;1608.3189501046431;1511.8998085183368;8.363126453695713;18882.2133312878;19666.666666666668;-784.453335378867
0.1560000000000001;79874727.0;68532715.0;688119.0;1683.8464037301756;1538.1691301035937;65.41155066912529;18881.863406383105;18750.0;131.86340638310412
0.16000000000000011;86912221.0;75064087.0;708034.0;1759.3734198658885;1632.7290407571654;47.57485271858582;18881.754033928246;15833.333333333334;3048.420700594912
0.16400000000000012;94251824.0;81908569.0;716949.0;1834.9005526295025;1718.6977129396562;37.66836890511536;18881.78319090349;16833.333333333332;2048.4498575701587
0.16800000000000012;101893536.0;89115601.0;665423.0;1910.427977537562;1803.2909251750173;25.510661610024044;18881.85622701485;20000.0;-1118.1437729851496
0.17200000000000013;109837359.0;96696167.0;542471.0;1985.9556507429375;1892.5279082461868;4.423806449809263;18881.91830134389;22333.333333333332;-3451.4150319894447
0.17600000000000013;118083293.0;104468994.0;529368.0;2061.483458052515;1943.9741500101736;27.718906328105277;18881.951827394347;20916.666666666668;-2034.714839272322
0.18000000000000013;126631339.0;112538452.0;521745.0;2137.011301764195;2023.8048595446862;22.95854171432029;18881.96092792009;17916.666666666668;965.2942612534225
0.18400000000000014;135481496.0;121014404.0;409740.0;2212.539128839333;2123.694513452136;-8.123591236453194;18881.956768784446;18333.333333333332;548.6234354511162
0.18800000000000014;144633764.0;129743042.0;347160.0;2288.0669247026945;2187.3996417701355;-0.05568265219608293;18881.948965840365;19250.0;-368.0510341596346
0.19200000000000014;154088143.0;138905640.0;152731.0;2363.594695766752;2281.0389144866544;-29.832880571077567;18881.942766014392;22250.0;-3368.05723398561
0.19600000000000015;163844633.0;148095703.0;232948.0;2439.122454284639;2314.4239911337054;17.122848995576533;18881.93962947173;17916.666666666668;965.2729628050629
0.20000000000000015;173903235.0;157758179.0;142863.0;2514.650210042457;2423.4701194640106;-21.800613099721886;18881.93893945447;17166.666666666668;1715.2722727878036
0.20400000000000015;184263947.0;167750244.0;25301.0;2590.1779680178843;2494.8914936808646;-24.747949819500718;18881.939493856862;18500.0;381.9394938568621
0.20800000000000016;194926771.0;177824707.0;127451.0;2665.7057293278053;2518.3335268691444;33.46677364545667;18881.940327480264;18750.0;131.9403274802653
0.21200000000000016;205891705.0;188377075.0;53808.0;2741.2334931145992;2638.0515754751364;-15.142095676027566;18881.94094669848;17916.666666666668;965.2742800318101
0.21600000000000016;217158751.0;199050293.0;161426.0;2816.7612580692444;2663.1574599061487;41.73686216538499;18881.941238661282;16500.0;2381.941238661284
0.22000000000000017;228727907.0;210009155.0;285510.0;2892.2890232140953;2762.649779001384;25.217347305468593;18881.941286212736;14750.0;4131.9412862127365
0.22400000000000017;240599175.0;221555786.0;123937.0;2967.8167880855053;2885.2148294917147;-31.514318161650408;18881.9412178525;20833.333333333332;-1951.3921154808322
0.22800000000000017;252772554.0;233107910.0;258981.0;3043.3445526056403;2883.7926825473155;53.53823381807251;18881.941130033738;19583.333333333332;-701.3922032995943
0.23200000000000018;265248044.0;245017090.0;339081.0;3118.8723168806646;2993.6869513455563;23.97772975356702;18881.941068756078;19000.0;-118.05893124392242
0.23600000000000018;278025645.0;257343750.0;303812.0;3194.4000810486477;3074.244538501574;16.831767022561053;18881.941041995786;18333.333333333332;548.6077086624555
0.24000000000000019;291105357.0;269796753.0;444312.0;3269.9278452063418;3121.6290466223936;53.40502313576462;18881.94103942351;16333.333333333334;2548.6077060901753
0.2440000000000002;304487180.0;282727661.0;409016.0;3345.455609396366;3244.1144407767974;4.329633145888238;18881.941047506076;20916.666666666668;-2034.725619160593
0.2480000000000002;318171114.0;295889282.0;445120.0;3420.9833736229984;3277.4403126104016;48.69776548285472;18881.941056658092;19666.666666666668;-784.7256100085751
0.25200000000000017;332156929.0;309314575.0;519662.0;3496.4536599818452;3360.5347746222915;45.6035876753167;18867.5715897117;18333.333333333332;534.2382563783694
0.25600000000000017;346443139.0;323190308.0;445784.0;3571.552313104266;3457.9369854304855;19.27367201705556;18774.663280605182;21250.0;-2475.336719394818
0.2600000000000002;361025236.0;337412109.0;327131.0;3645.524201366595;3566.892432439775;-21.47767862048022;18492.972065582308;18333.333333333332;159.63873224897543
0.2640000000000002;375894185.0;352018433.0;122571.0;3717.2370447287935;3647.2313636697118;-39.436123850827244;17928.210840549582;25166.666666666668;-7238.455826117086
0.2680000000000002;391035537.0;366718140.0;116960.0;3785.3377585481862;3672.871535022038;7.669859191701107;17025.178454848174;20333.333333333332;-3308.1548784851584
0.2720000000000002;406428880.0;381489258.0;321114.0;3848.335501780002;3712.9669337568034;50.1176274861532;15749.435807953887;14416.666666666666;1332.769141287221
0.2760000000000002;422047993.0;396903076.0;146962.0;3904.77810855439;3855.604593994197;-36.870522214368975;14110.651693597105;13416.666666666666;693.9850269304397
0.2800000000000002;437862101.0;412448730.0;82689.0;3953.5269170360243;3886.1611250464466;-10.854798997882426;12187.202120408529;17750.0;-5562.797879591471
0.2840000000000002;453837714.0;428021851.0;204670.0;3993.9030051514856;3880.684463686171;55.37126733198647;10094.02202886531;18750.0;-8655.97797113469
0.2880000000000002;469940488.0;443737793.0;365728.0;4025.6931525276905;3937.2270601395358;53.96638740819526;7947.536844051228;10166.666666666666;-2219.1298226154377
0.2920000000000002;486137278.0;459898682.0;229923.0;4049.1973759087255;4032.877159335394;-12.811056111598191;5876.0558452587475;9250.0;-3373.9441547412525
0.2960000000000002;502398330.0;476087036.0;180874.0;4065.262812231482;4055.479059883434;-9.800680433441357;4016.359080689085;12083.333333333334;-8066.974252644249
0.3000000000000002;518698816.0;492467651.0;21977.0;4075.1214384336877;4086.701705088369;-29.953734758981227;2464.6565505514673;15000.0;-12535.343449448534
0.3040000000000002;535019585.0;508820801.0;-54863.0;4080.191833675121;4100.433479580253;-34.64778951658127;1267.5988103583222;7916.666666666667;-6649.067856308345
0.3080000000000002;551347555.0;525283813.0;-209578.0;4081.9924074790347;4115.775796204717;-51.2764706706339;450.14345097843034;5250.0;-4799.85654902157
0.3120000000000002;567675467.0;541757813.0;-360073.0;4081.9778399161037;4120.268290593372;-60.99664688608391;-3.6418907327515626;3166.6666666666665;-3170.308557399418
0.3160000000000002;584000583.0;557995605.0;-269960.0;4081.278821715306;4054.014700530756;11.76378090006483;-174.75455019939545;1000.0;-1174.7545501993955
0.32000000000000023;600322846.0;574167480.0;-115031.0;4080.5654982525775;4052.448250509105;22.350664969349054;-178.33086568214185;-5583.333333333333;5405.002467651191
0.32400000000000023;616643259.0;590575562.0;-199112.0;4080.103029378126;4097.8394890085265;-28.78611309074131;-115.61721861289698;-3416.6666666666665;3301.0494480537695
0.32800000000000024;632962874.0;606840820.0;-142824.0;4079.90353143829;4060.342411666642;11.474464532955608;-49.87448495899116;-500.0;450.12551504100884
0.33200000000000024;649282375.0;623089600.0;-71496.0;4079.8751958127446;4057.344763177855;18.392118162844326;-7.08390638635592;1833.3333333333333;-1840.4172397196892
0.33600000000000024;665602053.0;639294434.0;43244.0;4079.91934137434;4060.2603279684304;22.227777770309785;11.036390398885487;-2166.6666666666665;2177.703057065552
0.34000000000000025;681921940.0;655686035.0;-28785.0;4079.9714235129622;4085.9820419112166;-7.816277044022627;13.02053465553854;-833.3333333333334;846.3538679888719
0.34400000000000025;698241958.0;671885376.0;91634.0;4080.0044279363956;4049.7679623521394;35.669810110974595;8.251105858334995;1250.0;-1241.748894141665
0.34800000000000025;714562023.0;688255005.0;41943.0;4080.016020913166;4076.6994129395616;5.801371142817061;2.8982441925791136;2000.0;-1997.101755807421
0.35200000000000026;730882081.0;704800415.0;-183431.0;4080.0141346568994;4156.894582408124;-87.89161142287094;-0.471564066629071;1250.0;-1250.471564066629
0.35600000000000026;747202111.0;721257935.0;-320889.0;4080.0074346865335;4096.359679250787;-35.59781413635028;-1.6749925914609776;6250.0;-6251.674992591461
0.36000000000000026;763522117.0;737325439.0;-68346.0;4080.0013627768994;4023.376750525923;52.53397874970415;-1.5179774085254394;-1583.3333333333333;1581.8153559248078
0.36400000000000027;779842110.0;753618164.0;-41051.0;4079.9978880218073;4076.0561375846514;1.4858689422353564;-0.868688773039139;-4833.333333333333;4832.464644560294
0.36800000000000027;796162098.0;770092163.0;-195049.0;4079.996798587386;4112.532633848855;-44.23555318046283;-0.2723586053434701;-3916.6666666666665;3916.394308061323
0.3720000000000003;812482087.0;786258545.0;-41440.0;4079.9970846040314;4031.815923921194;45.69515251677376;0.07150416138301807;2500.0;-2499.928495838617
0.3760000000000003;828802079.0;802271118.0;265976.0;4079.997808126754;4006.7644542343696;89.19102413756173;0.18088068065935659;-1916.6666666666667;1916.847547347326
0.3800000000000003;845122073.0;818673706.0;183378.0;4079.9984246667223;4106.500501495657;-15.500451702059308;0.15413499204441905;-5000.0;5000.154134992044
0.3840000000000003;861442069.0;834982910.0;194167.0;4079.9987587580226;4075.8007486456786;15.847319690143195;0.08352282509349607;1333.3333333333333;-1333.2498105082398
0.3880000000000003;877762065.0;851401978.0;95093.0;4079.9988504722382;4100.234762372701;-14.530628856531166;0.022928553903511784;6166.666666666667;-6166.6437381127635
0.3920000000000003;894082061.0;867590332.0;226735.0;4079.9988101820236;4052.366506780123;41.236386383585796;-0.010072553664031147;2750.0;-2750.010072553664
0.3960000000000003;910402057.0;884196167.0;-59104.0;4079.9987332456494;4134.753774827151;-58.30118086674156;-0.01923409354276373;0.0;-0.01923409354276373
0.4000000000000003;926722052.0;900653687.0;-196628.0;4079.9986718629193;4128.557287809472;-60.356187895446055;-0.015345682527367899;3000.0;-3000.0153456825274
0.4040000000000003;943042048.0;916902466.0;-125411.0;4079.9986406977787;4043.4378186279746;29.036230731185242;-0.00779128515659977;2583.3333333333335;-2583.34112461849
0.4080000000000003;959362043.0;933239136.0;-142086.0;4079.9986337610526;4091.2087709124753;-19.73527104638788;-0.0017341815237159608;-4083.3333333333335;4083.3315991518098
0.4120000000000003;975682038.0;949575806.0;-158760.0;4079.9986391915313;4072.26377451676;-1.7907363866775086;0.0013576196806752705;-2083.3333333333335;2083.334690953014
0.4160000000000003;992002034.0;965819092.0;-82051.0;4079.9986474288817;4059.5741969333008;15.501379021504818;0.002059337589344068;-3416.6666666666665;3416.668726004256
0.4200000000000003;1008322029.0;981985474.0;71562.0;4079.9986535671605;4057.1783624333884;27.11399999231753;0.0015345697192969965;-916.6666666666666;916.6682012363859
0.4240000000000003;1024642024.0;998360596.0;16436.0;4079.9986564717383;4090.723604727623;-9.738794913277616;0.0007261444352479884;-2000.0;2000.0007261444352
0.4280000000000003;1040962020.0;1014647827.0;49200.0;4079.9986569535613;4078.16592728919;4.784727393632238;0.00012045575203956105;1083.3333333333333;-1083.3332128775812
0.43200000000000033;1057282015.0;1030830688.0;186334.0;4079.9986562823688;4041.5689214662075;49.60977517954916;-0.00016779813449829817;2333.3333333333335;-2333.333501131468
0.43600000000000033;1073602011.0;1047189331.0;147687.0;4079.998655414141;4092.6598997224314;-3.8000230377983826;-0.00021705693598050857;-1666.6666666666667;1666.6664496097308
0.44000000000000034;1089922006.0;1063734741.0;-77728.0;4079.9986548063684;4132.407332590934;-57.07235664887958;-0.00015194314073596615;3416.6666666666665;-3416.6668186098073
0.44400000000000034;1106242001.0;1080203247.0;-226238.0;4079.998654539901;4106.328983356508;-39.90460817824987;-6.66168489260599e-05;5250.0;-5250.000066616849
0.44800000000000034;1122561997.0;1096254272.0;42732.0;4079.9986545132165;4022.7964057633935;59.766168940891475;-6.671143637504429e-06;250.0;-250.00000667114364
0.45200000000000035;1138881992.0;1112656860.0;-39861.0;4079.9986545926677;4102.006815137174;-24.39982060629609;1.9862795852532145e-05;-5916.666666666667;5916.666686529463
0.45600000000000035;1155201988.0;1129064941.0;-127946.0;4079.9986546832174;4096.623763829451;-24.30186928457806;2.2637436813965905e-05;-1666.6666666666667;1666.6666893041036
0.46000000000000035;1171521983.0;1145291748.0;-34758.0;4079.998654742789;4040.140181268376;37.77299335970747;1.4892862054693978e-05;2166.6666666666665;-2166.6666517738045
0.46400000000000036;1187841978.0;1161337280.0;239706.0;4079.9986547668345;4027.6631879807815;66.7178267255149;6.011418918205891e-06;-2750.0;2750.000006011419
0.46800000000000036;1204161974.0;1177734375.0;162606.0;4079.9986547673434;4104.252334721793;-14.497319969830642;1.2721557141048834e-07;-4750.0;4750.000000127216
0.47200000000000036;1220481969.0;1194071045.0;145931.0;4079.9986547581834;4077.7288925075372;11.025622259352986;-2.2899939722265117e-06;1500.0;-1500.000002289994
0.47600000000000037;1236801965.0;1210391235.0;145737.0;4079.998654748832;4074.8238198528056;13.919054910903014;-2.337856130907312e-06;5333.333333333333;-5333.333335671189
0.48000000000000037;1253121960.0;1226722412.0;134555.0;4079.998654743107;4081.7637871781058;6.308167576415599;-1.4312036000774242e-06;2000.0;-2000.0000014312036
0.4840000000000004;1269441955.0;1243361206.0;-184243.0;4079.998654740881;4152.456692757496;-83.51261801085957;-5.564970706473105e-07;1416.6666666666667;-1416.6666672231638
0.4880000000000004;1285761951.0;1259648438.0;-151480.0;4079.9986547410717;4075.0596960556823;-4.149841313423622;4.7634785005357116e-08;3333.3333333333335;-3333.3333332856987
0.4920000000000004;1302081946.0;1275946655.0;-129702.0;4079.998654742153;4057.305884923148;14.910649817802096;2.703473001020029e-07;-83.33333333333333;83.33333360368063
0.4960000000000004;1318401942.0;1292195435.0;-58486.0;4079.998654743107;4082.9210196519894;-6.431524910493863;2.3851498553995043e-07;-6000.0;6000.000000238515
0.5000000000000003;1334721937.0;1308515625.0;-58681.0;4079.998654743553;4057.968639984007;18.509154758506156;1.1141310096718371e-07;-2000.0;2000.000000111413
0.5040000000000003;1351041932.0;1324808350.0;-31410.0;4079.9986547438066;4090.1454149241877;-12.03136018092573;6.343725544866174e-08;-2083.3333333333335;2083.3333333967707
