Zeit[sec];Sollposition[°];Istposition[°];Positionsschleppfehler[°];Sollgeschwindigkeit[°/s];Istgeschwindigkeit[°/s];Geschwindigkeitsdifferenz[°/s];Sollbeschleunigung[°/s*s];Istbeschleunigung[°/s*s];Beschleunigungsdifferenz[°/s*s]
0.0;0.0;5493.0;-5493.0;-0.0;1.2059437193399873;-1.5355237193399873;0.0;83.33333333333333;-83.33333333333333
0.004;0.0;5493.0;-5493.0;-0.0;0.1149474059342102;-0.4445274059342102;0.0;166.66666666666666;-166.66666666666666
0.008;0.0;-5493.0;5493.0;-0.0;-5.698026654024248;6.027606654024248;0.0;0.0;0.0
0.012;0.0;5493.0;-5493.0;-0.0;0.9478460293047477;-1.2774260293047477;0.0;-83.33333333333333;83.33333333333333
0.016;0.0;5493.0;-5493.0;-0.0;0.10563759488117365;-0.4352175948811736;0.0;83.33333333333333;-83.33333333333333
0.02;0.0;5493.0;-5493.0;-0.0;0.011773327214826651;-0.34135332721482664;0.0;0.0;0.0
0.024;0.0;5493.0;-5493.0;-0.0;-0.14806787067612023;-0.18151212932387975;0.0;0.0;0.0
0.028;0.0;0.0;0.0;-0.0;-3.053010877072381;3.053010877072381;0.0;-83.33333333333333;83.33333333333333
0.032;0.0;-5493.0;5493.0;-0.0;-0.9384069122619016;1.2679869122619016;0.0;-166.66666666666666;166.66666666666666
0.036000000000000004;0.0;10986.0;-10986.0;-0.0;5.7669700141880735;-6.4261300141880735;0.0;0.0;0.0
0.04000000000000001;0.0;-5493.0;5493.0;-0.0;-0.6822794929295649;1.011859492929565;0.0;0.0;0.0
0.04400000000000001;0.0;5493.0;-5493.0;-0.0;3.0563702950996334;-3.3859502950996334;0.0;166.66666666666666;-166.66666666666666
0.048000000000000015;7352.0;-5493.0;5493.0;1.8381298624283868;-2.8354133095386653;3.1649933095386653;459.5324656070967;0.0;459.5324656070967
0.05200000000000002;80625.0;-5493.0;8408.0;18.318200911997856;-1.3084362754914476;2.5417060451652027;4120.017762392367;-83.33333333333333;4203.3510957257
0.05600000000000002;440776.0;5493.0;30868.0;90.03767202228168;2.986245408585723;7.227284831724142;17929.86777757096;0.0;17929.86777757096
0.060000000000000026;1630660.0;10986.0;212004.0;297.4709894313855;3.1168513593214477;56.26067631486178;51858.32935227595;83.33333333333333;51774.99601894261
0.06400000000000003;4646014.0;43945.0;866491.0;753.838698119487;11.054567913186553;212.7964020401834;114091.92717202539;416.6666666666667;113675.26050535873
0.06800000000000003;10943015.0;291138.0;2528091.0;1574.2501103424731;73.99184675062779;554.8918388359477;205102.85305574653;2333.3333333333335;202769.51972241318
0.07200000000000004;22281687.0;2329102.0;4795906.0;2834.667709672148;631.1675249849548;733.0318096095361;315104.39983241865;17666.666666666668;297437.73316575197
0.07600000000000004;40480196.0;9585571.0;5816154.0;4549.6272465305265;1875.3178547736306;542.8302815595753;428739.88421459467;96583.33333333333;332156.55088126136
0.08000000000000004;67211774.0;22027588.0;7403086.0;6682.894023041585;3190.954975639956;760.467294782703;533316.6941277646;203416.66666666666;329900.02746109787
0.08400000000000005;103888742.0;41885376.0;9086841.0;9169.241623513553;5114.736264762318;815.859795325181;621586.9001179922;315250.0;306336.9001179922
0.08800000000000005;151552649.0;71751709.0;9845279.0;11915.976247511895;7581.333465875495;665.5756615533473;686683.6559995854;422666.6666666667;264016.9893329187
0.09200000000000005;210727015.0;111978149.0;10593683.0;14793.59076251702;10198.307552592016;681.0239686368641;719403.6287512813;525916.6666666666;193486.96208461467
0.09600000000000006;281321072.0;164086304.0;10648776.0;17648.513352005157;13189.732027963368;490.0058238337697;713730.6473720341;630166.6666666666;83563.9807053675
0.10000000000000006;362640066.0;228696899.0;9672832.0;20329.74758725974;16296.889297315272;192.1425612194762;670308.5588136455;700083.3333333334;-29774.774519687868
0.10400000000000006;453457462.0;304464111.0;8685034.0;22704.347930642725;19035.355616806424;180.5991931444696;593650.0858457466;738166.6666666666;-144516.58082092
0.10800000000000007;552137487.0;390822144.0;7349122.0;24670.00515016856;21699.180282035246;-2.7037986017166986;491414.3048814585;728750.0;-237335.69511854148
0.11200000000000007;656840806.0;486474609.0;5575808.0;26175.828496438065;23969.230316058813;-164.89520515515323;376455.8365673765;683583.3333333334;-307127.49676595686
0.11600000000000008;765776437.0;589729614.0;3342900.0;27233.90647238545;25874.901183350037;-418.8041276460681;264519.4939868461;605916.6666666666;-341397.1726798205
0.12000000000000008;877398383.0;697994385.0;1424201.0;27905.48515166788;27066.016717724535;-394.04795996125176;167894.6698206073;519416.6666666667;-351521.9968460594
0.12400000000000008;990507899.0;809763794.0;-369294.0;28277.377547525193;27900.984492528547;-429.16488286479944;92973.09896432853;393083.3333333333;-300110.2343690048
0.12800000000000009;1104290409.0;922840576.0;-1250072.0;28445.626276983097;28325.660156997237;-351.66483251453974;42062.18236447603;265500.0;-223437.81763552397
0.1320000000000001;1218290572.0;1036961060.0;-2002925.0;28500.039349811224;28485.855469152764;-264.12448629088976;13603.26820703176;160916.66666666666;-147313.3984596349
0.1360000000000001;1332322775.0;1151460571.0;-2637573.0;28508.049412093857;28641.057160857134;-333.0971631011198;2002.5155706580335;82500.0;-80497.48442934197
0.1400000000000001;1446355047.0;1265322876.0;-2488287.0;28508.066512212026;28506.05463698289;-152.4554692324382;4.275029542441189;38333.333333333336;-38329.058303790895
0.1440000000000001;1560412311.0;1379284058.0;-2417427.0;28514.3145692982;28452.729952910886;-89.7663148460415;1562.0142715433758;3250.0;-1687.9857284566242
0.1480000000000001;1674519913.0;1492970581.0;-2061769.0;28526.89939379013;28463.022976695465;-76.1854476706576;3146.206122982221;-11000.0;14146.206122982221
0.1520000000000001;1788684160.0;1607047119.0;-2061231.0;28541.060268270816;28500.174464933345;-104.58067907146688;3540.2186201717996;-4833.333333333333;8373.551953505132
0.1560000000000001;1902894561.0;1720695190.0;-1579536.0;28552.598998736546;28398.751766282363;38.91629376967103;2884.682616432656;-3000.0;5884.682616432656
0.16000000000000011;2017133316.0;1834151001.0;-853133.0;28559.687407163947;28441.341059701525;53.0231810323603;1772.1021068500704;-6333.333333333333;8105.435440183403
0.16400000000000012;2131383875.0;1948760376.0;-1241135.0;28562.638203257487;28567.71304827752;-86.83931610470245;737.6990233851757;6916.666666666667;-6178.967643281491
0.16800000000000012;2245635415.0;2063128052.0;-1365542.0;28562.883774379443;28567.515936833068;-88.63263876736164;61.39278048885899;10750.0;-10688.607219511141
0.17200000000000013;2359883219.0;2176847534.0;-834145.0;28561.949508003036;28482.087842425804;30.581736123629526;-233.56659410183056;11750.0;-11983.56659410183
0.17600000000000013;2474126748.0;2291193237.0;-929796.0;28560.880972647086;28546.175748815873;-39.45159535005223;-267.1338389873199;-2916.6666666666665;2649.5328276793466
0.18000000000000013;2588367353.0;2405061035.0;-551463.0;28560.149838420868;28458.544318946108;69.8992257012178;-182.78355655456835;-6666.666666666667;6483.883110112099
0.18400000000000014;2702606640.0;2518961792.0;-209825.0;28559.820373869254;28492.566053971812;55.441796327897464;-82.36613790359115;-2250.0;2167.633862096409
0.18800000000000014;2816845719.0;2633582153.0;-590086.0;28559.768464101486;28619.823386113207;-95.20505124958436;-12.97744194198458;2666.6666666666665;-2679.644108608651
0.19200000000000014;2931085089.0;2747719116.0;-487837.0;28559.84115877517;28584.04358506283;-53.5120821490309;18.17366842078627;4333.333333333333;-4315.159664912547
0.19600000000000015;3045324822.0;2861526489.0;-56014.0;28559.931822650688;28429.359005177997;127.07774538453668;22.665968879664433;6833.333333333333;-6810.667364453669
0.20000000000000015;3159564798.0;2975789795.0;-79808.0;28559.992609974503;28519.72742357356;35.360776066321705;15.196830953755125;-6166.666666666667;6181.863497620422
0.20400000000000015;3273804871.0;3089718018.0;231796.0;28560.016994232177;28523.120471651448;50.74268098972243;6.096064418670721;-7416.666666666667;7422.762731085338
0.20800000000000016;3388044945.0;3204234009.0;-44182.0;28560.01702023563;28648.437649018022;-91.08664724208938;0.006500863491964992;2666.6666666666665;-2666.6601658031746
0.21200000000000016;3502284979.0;3318728027.0;-298127.0;28560.00719817766;28597.36815350951;-55.23891184388049;-2.455514492794464;12750.0;-12752.455514492794
0.21600000000000016;3616524973.0;3432474976.0;194982.0;28559.99724085274;28475.038483244287;96.67356254646438;-2.489331230208336;2250.0;-2252.4893312302083
0.22000000000000017;3730764943.0;3546826172.0;83804.0;28559.991104602013;28525.35583316166;39.675714643373794;-1.5340626814577263;-2250.0;2248.4659373185423
0.22400000000000017;3845004904.0;3661155396.0;-5435.0;28559.988885150247;28643.02198544346;-83.35321917456895;-0.5548629414988682;-10750.0;10749.445137058501
0.22800000000000017;3959244866.0;3775303345.0;86583.0;28559.98909421573;28579.4956763042;-14.310435725554271;0.05226637040323112;6000.0;-5999.947733629597
0.23200000000000018;4073484832.0;3889638062.0;-8173.0;28559.990190822973;28536.899402334442;22.599198711614008;0.27415181102696806;5250.0;-5249.725848188973
0.23600000000000018;4187724802.0;4003972778.0;-102925.0;28559.991214079244;28612.682953542626;-58.86892576423634;0.2558140677137999;583.3333333333334;-583.0775192656196
0.24000000000000019;4301964775.0;4118461304.0;-351484.0;28559.991809395848;28584.599306773333;-45.69775667072463;0.14882915093039628;5500.0;-5499.85117084907
0.2440000000000002;4416204748.0;4232301636.0;48155.0;28559.99200230946;28468.63500515479;94.24573896252696;0.04822840310225729;-7083.333333333333;7083.381561736435
0.2480000000000002;4530444722.0;4346367188.0;222576.0;28559.991959919666;28598.10081842662;-24.754376031767606;-0.010597448635962792;-7500.0;7499.989402551364
0.25200000000000017;4644684694.0;4461102905.0;-273167.0;28559.991840539205;28571.486894657908;-27.88493028573066;-0.02984511502290843;4500.0;-4500.029845115023
0.25600000000000017;4758924667.0;4574948730.0;120981.0;28559.99173721202;28457.85733724833;109.3934355872334;-0.025831795937847346;83.33333333333333;-83.35916512927118
0.2600000000000002;4873164639.0;4689008789.0;300894.0;28559.991680677787;28574.30524096637;3.740199304629641;-0.014133558579487726;250.0;-250.0141335585795
0.2640000000000002;4987404611.0;4803607178.0;-57522.0;28559.991664879086;28592.542243307267;-36.001847904779424;-0.00394967537431512;-4500.0;4499.996050324626
0.2680000000000002;5101644583.0;4917755127.0;34501.0;28559.991671481916;28558.286471793697;3.775262951377954;0.0016507074178662151;3083.3333333333335;-3083.3316826259156
0.2720000000000002;5215884555.0;5032062378.0;-32778.0;28559.9916844283;28539.78392959422;18.24105799530298;0.0032365960578317754;11666.666666666666;-11666.663430070608
0.2760000000000002;5330124527.0;5146237793.0;31779.0;28559.991694844233;28547.764831806857;14.13358476934809;0.0026039833755930886;-9500.0;9500.002603983376
0.2800000000000002;5444364500.0;5260627441.0;-117897.0;28559.9917001835;28634.254712101105;-81.3368436189412;0.001334816261078231;-333.3333333333333;333.3346681495944
0.2840000000000002;5558604472.0;5374698486.0;51030.0;28559.991701415005;28493.336459824455;69.71703707565393;0.00030787668947596103;1500.0;-1499.9996921233105
0.2880000000000002;5672844444.0;5489011230.0;-21741.0;28559.99170052903;28586.578766830557;-27.891526190061995;-0.00022149379219627008;-1666.6666666666667;1666.6664451728745
0.2920000000000002;5787084416.0;5603692017.0;-462556.0;28559.991699146125;28682.515230866124;-150.27688980961466;-0.0003457262209849432;6250.0;-6250.000345726221
0.2960000000000002;5901324389.0;5717433472.0;35961.0;28559.99169810519;28414.31643653196;147.83292345400332;-0.00026023371901828796;-1416.6666666666667;1416.6664064329477
0.3000000000000002;6015564361.0;5831449585.0;259820.0;28559.9916976075;28551.989345576498;23.591553165009827;-0.00012442251318134367;-8583.333333333334;8583.33320891082
0.3040000000000002;6129804333.0;5945773315.0;176063.0;28559.99169752023;28570.72914220281;-0.17366428887908114;-2.1817868400830775e-05;-3666.6666666666665;3666.666644848798
0.3080000000000002;6244044305.0;6059987183.0;202167.0;28559.991697631165;28538.312411988973;33.80930558685577;2.7734131435863674e-05;-1583.3333333333333;1583.3333610674647
0.3120000000000002;6358280994.0;6174508667.0;-79345.0;28559.17070578295;28675.149477572788;-119.91848000803657;-205.24796205336315;12083.333333333334;-12288.581295386697
0.3160000000000002;6472493165.0;6288673096.0;-5104.0;28553.04144822744;28528.399567946362;30.96037924438133;-1532.3143888781487;4250.0;-5782.314388878149
0.32000000000000023;6586616442.0;6402700195.0;194785.0;28530.817916804954;28494.333706202346;74.09875522861694;-5555.882855621348;-4833.333333333333;-722.5495222880154
0.32400000000000023;6700517603.0;6516914063.0;157986.0;28475.288894440993;28586.103215144904;-32.35797626530257;-13882.255590990098;-4500.0;-9382.255590990098
0.32800000000000024;6813963421.0;6630946655.0;161127.0;28361.453163815517;28477.73073637856;40.868626704414055;-28458.932656369143;-5000.0;-23458.932656369143
0.33200000000000024;6926580934.0;6744973755.0;-144047.0;28154.376927843517;28524.75166551847;-102.91431422173991;-51769.05899299982;-3083.3333333333335;-48685.72565966648
0.33600000000000024;7037831682.0;6858896484.0;-946700.0;27812.685680970197;28467.700637427217;-244.4849593743602;-85422.8117183302;916.6666666666666;-86339.47838499687
0.34000000000000025;7147010432.0;6971198730.0;-1168481.0;27294.686118278154;27992.992661064804;-42.986496360699675;-129499.89067301067;-20166.666666666668;-109333.224006344
0.34400000000000025;7253255934.0;7081869507.0;-1402016.0;26561.374344293192;27673.594971139573;-148.4068858839164;-183327.94349624054;-55333.333333333336;-127994.61016290722
0.34800000000000025;7355574482.0;7190584717.0;-2089323.0;25579.63572740965;27154.474362684494;-272.8591311072523;-245434.65422088502;-88833.33333333333;-156601.3208875517
0.35200000000000026;7452884222.0;7296888428.0;-3687321.0;24327.43393274763;26494.570662694023;-539.3828516535759;-313050.44866550545;-119416.66666666667;-193633.78199883876
0.35600000000000026;7544069515.0;7398023071.0;-4466320.0;22796.322196651396;25225.32231394288;-404.3918577553959;-382777.9340240586;-155916.66666666666;-226861.26735739195
0.36000000000000026;7628037557.0;7493626099.0;-5158507.0;20992.009533641347;23821.369046785025;-403.1702938880044;-451078.16575251217;-237916.66666666666;-213161.4990858455
0.36400000000000027;7703800127.0;7583065796.0;-6238553.0;18940.641486971028;22275.8176491445;-560.2190531625783;-512842.01166757976;-315416.6666666667;-197425.34500091308
0.36800000000000027;7770580834.0;7664644775.0;-7060543.0;16695.1760126573;20236.213884208886;-470.60016393684054;-561366.3685784322;-377166.6666666667;-184199.70191176556
0.3720000000000003;7827899294.0;7737017212.0;-7183499.0;14329.614186339844;18016.75218228493;-385.39287583279656;-591390.4565793637;-450916.6666666667;-140473.789912697
0.3760000000000003;7875621742.0;7800595093.0;-7679679.0;11930.611607650419;15764.421478322824;-454.7774836333101;-599750.6446723564;-510583.3333333333;-89167.31133902312
0.3800000000000003;7913999590.0;7854230347.0;-7745699.0;9594.461466785659;13310.578690209546;-383.0127680786918;-584037.53521619;-566833.3333333334;-17204.201882856636
0.3840000000000003;7943667397.0;7898049316.0;-7490981.0;7416.951404984064;10837.654566159968;-268.69219128205805;-544377.5154503988;-585583.3333333334;41205.81788293464
0.3880000000000003;7965573565.0;7932161865.0;-6624323.0;5476.541842214201;8432.978003946318;-85.63625333864547;-485102.39069246565;-608000.0;122897.60930753437
0.3920000000000003;7980875539.0;7958111572.0;-5932557.0;3825.493251789576;6418.102439824447;-113.68767956082866;-412762.1476061563;-597666.6666666666;184904.51906051033
0.3960000000000003;7990835587.0;7976079712.0;-4567510.0;2490.011730480905;4414.112330421071;145.13353060580084;-333870.3803271677;-557833.3333333334;223962.95300616566
0.4000000000000003;7996720707.0;7987565918.0;-2831036.0;1471.2800685469663;2849.43156903879;286.3760792851567;-254682.91548348468;-507083.3333333333;252400.41784984863
0.4040000000000003;7999712327.0;7994734497.0;-1623912.0;747.9049735661299;1753.2216387072913;243.26927253800386;-180843.7737452091;-429083.3333333333;248239.55958812422
0.4080000000000003;8000844431.0;7998184204.0;-311850.0;283.02598510170645;858.577453518387;313.1538234361643;-116219.74711610586;-347750.0;231530.25288389414
0.4120000000000003;8000959784.0;7999557495.0;586164.0;28.838288491590493;349.09616569836436;253.8999186229766;-63546.92415252899;-253333.33333333334;189786.40918080436
0.4160000000000003;8000666996.0;7999628906.0;1254627.0;-73.19713935408522;32.812758808795365;227.43329659282233;-25508.85696141893;-177500.0;151991.14303858107
0.4200000000000003;8000325888.0;7999612427.0;1230594.0;-85.2769555561317;-1.701326379403472;65.40918306844226;-3019.9540505116183;-107666.66666666667;104646.71261615506
0.4240000000000003;8000088503.0;7999535522.0;997945.0;-59.34624683989316;-17.2822321796529;-0.2298017164232249;6482.677179059634;-48083.333333333336;54566.01051239297
0.4280000000000003;7999975341.0;7999469604.0;764162.0;-28.290397802562854;-15.744447980616242;-13.330886563872761;7763.962259332577;-14833.333333333334;22597.295592665912
0.43200000000000033;7999948945.0;7999425659.0;619367.0;-6.5991928542733245;-13.290515707451851;3.26751001677537;5422.801237072383;-500.0;5922.801237072383
0.43600000000000033;7999963169.0;7999425659.0;539879.0;3.5562107195888704;-3.094984688092023;15.615582856960238;2538.850893465549;583.3333333333334;1955.5175601322153
0.44000000000000034;7999985624.0;7999425659.0;529080.0;5.613623279312218;-1.4583275446780026;30.503296625171256;514.353139930837;1500.0;-985.646860069163
0.44400000000000034;8000001322.0;7999425659.0;546330.0;3.9244828326247254;-2.5926971530020237;39.68493548752497;-422.2851116718732;1000.0;-1422.2851116718732
0.44800000000000034;8000007567.0;7999431152.0;560564.0;1.561223714293329;-1.0425075893700122;39.608197922774174;-590.8147795828492;416.6666666666667;-1007.4814462495158
0.45200000000000035;8000007310.0;7999442139.0;561567.0;-0.06422572488312932;1.2293899557031691;35.462014869760914;-406.3623597941146;83.33333333333333;-489.6956931274479
0.45600000000000035;8000004433.0;7999453125.0;554303.0;-0.7192572666736632;2.5374469734951854;31.65133865719998;-163.75788544763347;83.33333333333333;-247.09121878096678
0.46000000000000035;8000001593.0;7999453125.0;553045.0;-0.7099342761297721;1.4933723719529808;31.3749162494841;2.3307476359727684;0.0;2.3307476359727684
0.46400000000000036;7999999908.0;7999447632.0;555691.0;-0.42122475652031516;-2.1875925048701466;34.817329733749204;72.17737990236424;-83.33333333333333;155.51071323569758
0.46800000000000036;7999999475.0;7999453125.0;547816.0;-0.10839712574797095;0.1037898929156363;32.16965001742444;78.20690769308605;-83.33333333333333;161.54024102641938
0.47200000000000036;7999999967.0;7999453125.0;546620.0;0.12310495693843568;0.01156740052625537;32.48674745322562;57.875520671601656;0.0;57.875520671601656
0.47600000000000037;8000000977.0;7999480591.0;519081.0;0.25261604126981824;7.884031874377281;23.242384984014727;32.37777108284564;166.66666666666666;-134.28889558382102
0.48000000000000037;8000002113.0;7999486084.0;514281.0;0.28400553925342753;1.3137043751440942;29.716253245600736;7.847374495902323;416.6666666666667;-408.81929217076436
0.4840000000000004;8000003028.0;7999513550.0;487871.0;0.22871941985331798;5.66959545718506;23.866967175538587;-13.821529850027387;333.3333333333333;-347.1548631833607
0.4880000000000004;8000003485.0;7999546509.0;455960.0;0.11406699827711728;9.211837622549385;18.407663911329706;-28.663105394050177;333.3333333333333;-361.99643872738346
0.4920000000000004;8000003415.0;7999584961.0;418243.0;-0.017480700714487797;12.395286362048239;12.88287910618623;-32.88692474790127;250.0;-282.8869247479013
0.4960000000000004;8000002916.0;7999650879.0;352575.0;-0.12469549628132665;18.26604886098206;2.951033321632174;-26.80369889170971;750.0;-776.8036988917097
