Zeit[sec];Sollposition[°];Istposition[°];Positionsschleppfehler[°];Sollgeschwindigkeit[°/s];Istgeschwindigkeit[°/s];Geschwindigkeitsdifferenz[°/s];Sollbeschleunigung[°/s*s];Istbeschleunigung[°/s*s];Beschleunigungsdifferenz[°/s*s]
0.0;-9979199607.0;-9980804443.0;1602723.0;0.2406797167377958;3.7369192098006607;92.9723470548135;-57.5491818025715;-416.6666666666667;359.11748486409516
0.004;-9979199381.0;-9980848389.0;1648191.0;0.056733180774550966;-8.415194304302336;107.68700350759912;-45.986633990811214;-666.6666666666666;620.6800326758554
0.008;-9979199533.0;-9980853882.0;1654360.0;-0.038025440258013035;-0.16310036659240723;99.59379696496967;-23.689655258141002;333.3333333333333;-357.0229885914743
0.012;-9979199775.0;-9980787964.0;1588522.0;-0.060699422059227154;14.328792573228478;81.002768106626;-5.66849545030353;1083.3333333333333;-1089.0018287836367
0.016;-9979199959.0;-9980760498.0;1560870.0;-0.04597692693126001;9.708328644342721;83.89741126213562;3.6806237819917866;1083.3333333333333;-1079.6527095513416
0.02;-9979200048.0;-9980672607.0;1472761.0;-0.022164897281922877;21.84330631995201;66.46762435265636;5.953007412334283;1750.0;-1744.0469925876657
0.024;-9979200064.0;-9980535278.0;1335285.0;-0.00404433778444404;35.94346493253857;44.1370129736736;4.530139874369709;1500.0;-1495.4698601256302
0.028;-9979200045.0;-9980364990.0;1164936.0;0.004734617574752203;38.56225034534931;31.31878975252873;2.194738839799061;2666.6666666666665;-2664.4719278268676
0.032;-9979200020.0;-9980189209.0;989154.0;0.006369661274222895;38.651988978348676;20.696581227244536;0.4087609248676729;2500.0;-2499.5912390751323
0.036000000000000004;-9979200002.0;-9980062866.0;862832.0;0.004525623792015338;26.095676355198027;25.679575092456606;-0.4610093705518892;1000.0;-1000.4610093705519
0.04000000000000001;-9979199994.0;-9980057373.0;857361.0;0.0020195086985494567;3.3353525208309294;48.11193642810118;-0.6265287733664704;-2416.6666666666665;2416.0401378933
0.04400000000000001;-9979199993.0;-9980057373.0;857375.0;0.00023056069808539043;-0.024759327709674837;51.47080212095235;-0.4472370001160166;-3750.0;3749.552762999884
0.048000000000000015;-9979199995.0;-9980057373.0;857380.0;-0.0005726686158967429;0.1774099771231413;51.26671492599067;-0.20080732849553334;-3166.6666666666665;3166.465859338171
0.05200000000000002;-9979199998.0;-9980051880.0;851886.0;-0.0006670266477431453;2.738955129355192;48.37412744560349;-0.023589507961600593;-1083.3333333333333;1083.3097438253717
0.05600000000000002;-9979359476.0;-9980046387.0;846391.0;-39.86968757509715;0.750618386246264;50.0322362400455;-9967.255137112352;166.66666666666666;-10133.92180377902
0.060000000000000026;-9979588213.0;-9980073853.0;810625.0;-57.184099877143844;-5.840881573803723;38.670271406042296;-4328.603075511673;-250.0;-4078.6030755116726
0.06400000000000003;-9979942122.0;-9980128784.0;679552.0;-88.47726069467271;-13.755878524579108;8.028024551668707;-7823.290204382216;-750.0;-7073.290204382216
0.06800000000000003;-9980383461.0;-9980260620.0;533428.0;-110.33483130348331;-32.117639678642156;-5.366577872335242;-5464.392652202651;-2083.3333333333335;-3381.059318869318
0.07200000000000004;-9980858181.0;-9980535278.0;420246.0;-118.68002267890526;-73.39481773783267;1.6494901854414081;-2086.297843855487;-3583.3333333333335;1497.0354894778466
0.07600000000000004;-9981344878.0;-9981007690.0;438596.0;-121.67425725065058;-113.96703582967073;26.767298242315974;-748.5586429363309;-7416.666666666667;6668.108023730336
0.08000000000000004;-9981848541.0;-9981425171.0;376804.0;-125.91562801028837;-98.65222720266134;1.4421749066456755;-1060.3426899094472;-7666.666666666667;6606.3239767572195
0.08400000000000005;-9982361973.0;-9981787720.0;245999.0;-128.35794396441543;-93.12365693479032;-15.45475320746958;-610.5789885317633;-3916.6666666666665;3306.087678134903
0.08800000000000005;-9982851806.0;-9982210693.0;161535.0;-122.45836963730642;-108.00388239440322;-9.163133948698587;1474.893581777252;166.66666666666666;1308.2269151105852
0.09200000000000005;-9983289347.0;-9982611694.0;58518.0;-109.38512293321327;-100.96323208659142;-21.530232392929406;3268.311676023288;833.3333333333334;2434.9783426899544
0.09600000000000006;-9983663018.0;-9982957764.0;-64650.0;-93.41793532963294;-86.6935389002636;-34.495060506645856;3991.796900895082;0.0;3991.796900895082
0.10000000000000006;-9983961250.0;-9983270874.0;-164064.0;-74.55795400352761;-78.10237997164577;-34.872443618928315;4714.995331526332;1166.6666666666667;3548.328664859665
0.10400000000000006;-9984182630.0;-9983479614.0;-299459.0;-55.344983903848366;-50.22127024744451;-53.78007491353493;4803.242524919811;3250.0;1553.2425249198116
0.10800000000000007;-9984347486.0;-9983644409.0;-402867.0;-41.21397580033313;-38.93132221950591;-52.291517045322045;3532.7520258788086;4000.0;-467.24797412119125
0.11200000000000007;-9984486230.0;-9983776245.0;-470451.0;-34.68585600269196;-34.563177845194936;-43.5187181393377;1632.029949410292;4000.0;-2367.970050589708
0.11600000000000008;-9984625772.0;-9983869629.0;-531901.0;-34.88566715206377;-21.532997251592576;-49.08953992632132;-49.952787342951055;2916.6666666666665;-2966.6194540096176
0.12000000000000008;-9984782433.0;-9983919067.0;-621676.0;-39.165234525374;-13.498227656707169;-58.605661046633486;-1069.8918433275574;2583.3333333333335;-3653.2251766608906
0.12400000000000008;-9984961404.0;-9984171753.0;-515315.0;-44.74275424064887;-63.38316714122146;-4.11701083766161;-1394.3799288187186;-166.66666666666666;-1227.713262152052
0.12800000000000009;-9985161329.0;-9984418945.0;-433529.0;-49.98124981298508;-65.97527873267978;-1.3880196208195343;-1309.6238930840514;-2666.6666666666665;1357.0427735826152
0.1320000000000001;-9985378144.0;-9984594727.0;-444895.0;-54.20380265487409;-47.5393425436616;-25.9414125603054;-1055.638210472253;-3333.3333333333335;2277.6951228610806
0.1360000000000001;-9985606521.0;-9984737549.0;-508572.0;-57.09401632135755;-39.09294124468416;-43.046110482745256;-722.5534166208654;-250.0;-472.5534166208654
0.1400000000000001;-9985842284.0;-9985006714.0;-460708.0;-58.94095333964782;-70.05788057716936;-12.909585116227362;-461.73425457256735;1250.0;-1711.7342545725674
0.1440000000000001;-9986082600.0;-9985177002.0;-521657.0;-60.07885632746469;-46.460220846757295;-42.6485622983333;-284.47574695421804;-333.3333333333333;48.85758637911525
0.1480000000000001;-9986323998.0;-9985259399.0;-676785.0;-60.349569691647645;-32.74335319532454;-67.24503900263096;-67.67834104573822;1166.6666666666667;-1234.345007712405
0.1520000000000001;-9986563524.0;-9985457153.0;-719749.0;-59.88157057977082;-50.39886498118192;-52.965597564845204;116.99977796920535;833.3333333333334;-716.333555364128
0.1560000000000001;-9986798835.0;-9985737305.0;-680247.0;-58.8277322849173;-66.69940451332182;-34.27784463176546;263.45957371338;-416.6666666666667;680.1262403800467
0.16000000000000011;-9987026226.0;-9985924072.0;-731346.0;-56.84773707136139;-51.34837478361279;-51.99886756080772;494.9988033889792;-2666.6666666666665;3161.6654700556455
0.16400000000000012;-9987242101.0;-9986231689.0;-655924.0;-53.968547159740886;-78.91521304934471;-18.489096904534293;719.7974779051251;-1750.0;2469.797477905125
0.16800000000000012;-9987442878.0;-9986390991.0;-719494.0;-50.19448555218037;-39.51506421883404;-59.37236057438909;943.5154018901297;0.0;943.5154018901297
0.17200000000000013;-9987622706.0;-9986638184.0;-682257.0;-44.95686707018062;-64.82707080005109;-28.597410155430794;1309.4046204999365;1000.0;309.4046204999365
0.17600000000000013;-9987776021.0;-9986901855.0;-611146.0;-38.32866553832527;-62.300524917431176;-22.50820038671408;1657.0503829638383;-750.0;2407.0503829638383
0.18000000000000013;-9987892239.0;-9987061157.0;-621282.0;-29.054487618163748;-45.78012777065486;-33.85637012853711;2318.54448004038;1166.6666666666667;1151.8778133737133
0.18400000000000014;-9987948358.0;-9987236938.0;-584263.0;-14.029922313614934;-43.529412698179485;-26.21680332219279;3756.1413261372036;250.0;3506.1413261372036
0.18800000000000014;-9987923119.0;-9987379761.0;-534047.0;6.30970622655012;-31.488993799984456;-23.705649319980992;5084.907135041263;2083.3333333333335;3001.57380170793
0.19200000000000014;-9987771184.0;-9987407227.0;-530794.0;37.98375561871033;-7.732672521464527;-30.16857944492165;7918.512348040053;2583.3333333333335;5335.1790147067195
0.19600000000000015;-9987388542.0;-9987379761.0;-483265.0;95.66050739217486;9.133995077684522;-19.381100685097095;14419.187943366132;3500.0;10919.187943366132
0.20000000000000015;-9986682490.0;-9987308350.0;-312012.0;176.51300930952414;19.356953629910947;22.588422734629894;20213.12547933732;4666.666666666667;15546.458812670651
0.20400000000000015;-9985630979.0;-9987072144.0;-38701.0;262.87768971916597;69.16946649442613;55.887784870217246;21591.17010241046;4166.666666666667;17424.50343574379
0.20800000000000016;-9984256344.0;-9986248169.0;-21549.0;343.65874579780376;209.6244553734213;-0.6358848580349843;20195.264019659448;11000.0;9195.264019659448
0.21200000000000016;-9982603539.0;-9985138550.0;46432.0;413.20138263009756;276.11079327099026;21.075199930209806;17385.659208073448;19583.333333333332;-2197.6741252598836
0.21600000000000016;-9980738981.0;-9983924561.0;315475.0;466.13931038122655;311.2520184278041;78.43446976987644;13234.48193778225;21416.666666666668;-8182.184728884419
0.22000000000000017;-9978741378.0;-9982205200.0;331246.0;499.400733462713;440.51619236727805;13.141535073304624;8315.35577037161;18916.666666666668;-10601.310896295057
0.22400000000000017;-9976674638.0;-9980222168.0;264281.0;516.6851230448979;485.81846123767644;9.055160515088744;4321.097395546218;19250.0;-14928.902604453782
0.22800000000000017;-9974621349.0;-9978447876.0;514224.0;513.3220883760283;432.47961881114543;104.4326539014429;-840.7586672173863;15583.333333333334;-16424.09200055072
0.23200000000000018;-9972726741.0;-9976673584.0;800934.0;473.65214022043625;479.27660939085484;84.02988723511652;-9917.487038898016;4666.666666666667;-14584.153705564684
0.23600000000000018;-9971109476.0;-9974322510.0;440313.0;404.3161278040812;570.0331673602685;-46.001108303678166;-17334.003104088766;4750.0;-22084.003104088766
0.24000000000000019;-9969795022.0;-9972443848.0;347227.0;328.6134748103782;449.0571689413041;18.170386833733687;-18925.66324842575;5750.0;-24675.66324842575
0.2440000000000002;-9968758467.0;-9971262817.0;665026.0;259.1387442810214;305.98547601702063;108.62355842678511;-17368.6826323392;-4250.0;-13118.682632339202
0.2480000000000002;-9967949311.0;-9970147705.0;755960.0;202.289052998408;289.18653628227116;57.682463648316;-14212.422820653344;-21250.0;7037.577179346656
0.25200000000000017;-9967304768.0;-9969131470.0;687748.0;161.1357243407425;254.71355350705235;23.557134955974533;-10288.332164416373;-23000.0;12711.667835583627
0.25600000000000017;-9966775054.0;-9968675537.0;977037.0;132.4284658656613;117.09722304511816;127.83050182119759;-7176.814618770301;-14916.666666666666;7739.852047896365
0.2600000000000002;-9966328280.0;-9968225098.0;1126578.0;111.69342491402017;109.28981131271273;108.29974637876033;-5183.760237910285;-14250.0;9066.239762089715
0.2640000000000002;-9965993677.0;-9967835083.0;1234065.0;83.65087018057967;99.32336929441243;99.09608341160063;-7010.638683360125;-14000.0;6989.361316639875
0.2680000000000002;-9965889652.0;-9967461548.0;1263316.0;26.00619233149574;91.22263482041657;85.27280968724665;-14411.169462270984;-7333.333333333333;-7077.836128937651
0.2720000000000002;-9966115600.0;-9967186890.0;1232498.0;-56.48690846018852;63.217512611716984;71.69233534404549;-20623.275197921066;-2250.0;-18373.275197921066
0.2760000000000002;-9966692919.0;-9967142944.0;1163098.0;-144.3298931415457;7.157113486908377;56.26549511971665;-21960.7461703393;-5083.333333333333;-16877.412837005963
0.2800000000000002;-9967616055.0;-9967307739.0;964565.0;-230.78386626525517;-38.16910888680071;5.2110875595102755;-21613.493280927363;-9750.0;-11863.493280927365
0.2840000000000002;-9968847601.0;-9967807617.0;752072.0;-307.8864783265297;-138.473859032467;5.5053413791051184;-19275.653015318632;-12833.333333333334;-6442.319681985298
0.2880000000000002;-9970289293.0;-9968801880.0;702945.0;-360.4229108588767;-246.54438410668075;27.87380313624743;-13134.108133086755;-19583.333333333332;6449.225200246577
0.2920000000000002;-9971829362.0;-9969944458.0;532465.0;-385.0173150741209;-288.39094544202834;-7.925734384256145;-6148.6010538110495;-20833.333333333332;14684.732279522283
0.2960000000000002;-9973431244.0;-9971262817.0;371358.0;-400.4704057510597;-330.0481332453266;-17.536763937947114;-3863.272669234689;-19750.0;15886.72733076531
0.3000000000000002;-9975070113.0;-9972839355.0;383896.0;-409.71730763833153;-392.40576465431604;24.43940841858739;-2311.725471817965;-13916.666666666666;11604.941194848701
0.3040000000000002;-9976599905.0;-9974393921.0;322277.0;-382.4480143657402;-380.7580534880161;-3.951438925301261;6817.323318147828;-10666.666666666666;17483.989984814492
0.3080000000000002;-9977824150.0;-9975910034.0;242986.0;-306.0611705695598;-383.88455735888334;-0.3875605138027822;19096.710949045104;-5750.0;24846.710949045104
0.3120000000000002;-9978643634.0;-9977393188.0;316853.0;-204.8710133424054;-365.97735199093074;32.666926630665444;25297.5393067886;-1500.0;26797.5393067886
0.3160000000000002;-9979087517.0;-9978563232.0;421343.0;-110.97087171380424;-285.167064289853;44.05921080186465;23475.03540715029;5166.666666666667;18308.368740483624
0.32000000000000023;-9979262429.0;-9979161987.0;347162.0;-43.72784023489567;-144.8455502402112;-2.5587152136991165;16810.757869727142;13000.0;3810.7578697271424
0.32400000000000023;-9979288014.0;-9979222412.0;68146.0;-6.396239713989739;-15.079842291332781;-65.69165425586654;9332.900130226484;25333.333333333332;-16000.433203106848
0.32800000000000024;-9979256063.0;-9979161987.0;-109561.0;7.987682100793498;8.339540928713978;-44.23364700095398;3595.9804536958095;28750.0;-25154.01954630419
0.33200000000000024;-9979199999.0;-9979057617.0;-217578.0;14.01586803363059;25.526786481380462;-39.493445791475125;1507.0464832092728;19916.666666666668;-18409.620183457395
0.33600000000000024;-9979199999.0;-9978859863.0;-374158.0;0.0;50.81222183089704;-62.968218990066234;-3503.9670084076474;9416.666666666666;-12920.633675074314
0.34000000000000025;-9979199999.0;-9978640137.0;-560190.0;0.0;52.809500050626696;-77.99742609631326;0.0;3833.3333333333335;-3833.3333333333335
0.34400000000000025;-9979199999.0;-9978546753.0;-653246.0;0.0;22.00023384641111;-61.11286961959067;0.0;1833.3333333333333;-1833.3333333333333
0.34800000000000025;-9979199999.0;-9978546753.0;-653246.0;0.0;-5.1398026380985975;-34.05495736184051;0.0;-2000.0;2000.0
0.35200000000000026;-9979055007.0;-9978563232.0;-636767.0;36.2480814005889;-4.421564989216626;-33.78445501076737;9062.020350147226;-5083.333333333333;14145.353683480558
0.35600000000000026;-9978694659.0;-9978563232.0;-579279.0;90.08702808650213;-1.8724541750103236;-18.512487925868243;13459.736671478307;-3416.6666666666665;16876.403338144974
0.36000000000000026;-9977969224.0;-9978519287.0;-393696.0;181.3588441294761;13.83071352776885;19.929517898325244;22817.95401074349;-916.6666666666666;23734.62067741016
0.36400000000000027;-9976846794.0;-9978327026.0;-82120.0;280.6073626107409;60.17181916407496;60.86039528313508;24812.1296203162;2500.0;22312.1296203162
0.36800000000000027;-9975451604.0;-9977667847.0;139399.0;348.7975149289632;175.35750275280327;53.18097239922457;17047.53807955558;8750.0;8297.53807955558
0.3720000000000003;-9973963045.0;-9976426392.0;126193.0;372.13970302860656;308.44587864849717;6.18785959731872;5835.5470249108375;20166.666666666668;-14331.11964175583
0.3760000000000003;-9972460264.0;-9975031128.0;161540.0;375.6953779408371;340.8869886741042;26.458187441012228;888.9187280576323;26250.0;-25361.081271942367
0.3800000000000003;-9970943008.0;-9973696289.0;320352.0;379.313885773824;332.4050418730676;60.2287800674701;904.6269582467232;19750.0;-18845.373041753275
0.3840000000000003;-9969454387.0;-9972355957.0;488457.0;372.15515884242586;331.00814272407445;75.40850300062436;-1789.6817328495304;7500.0;-9289.68173284953
0.3880000000000003;-9968122098.0;-9970988159.0;626477.0;333.07226811732573;341.0499858778268;72.99299432844384;-9770.722681275032;-250.0;-9520.722681275032
0.3920000000000003;-9967056205.0;-9969642334.0;707457.0;266.47321550841167;332.6527024312392;66.49606657444178;-16649.763152228516;0.0;-16649.763152228516
0.3960000000000003;-9966307794.0;-9968428345.0;721051.0;187.10289221448946;296.77376132179796;53.38508435910302;-19842.58082348055;-1083.3333333333333;-18759.24749014722
0.4000000000000003;-9965920426.0;-9967516479.0;750763.0;96.84176039228913;227.53529388114066;52.90483742647319;-22565.282955550083;-5916.666666666667;-16648.616288883415
0.4040000000000003;-9965895608.0;-9966917725.0;759132.0;6.204646405653271;146.7324907361418;50.59625352911803;-22659.278496658964;-12750.0;-9909.278496658964
0.4080000000000003;-9966163915.0;-9966736450.0;823595.0;-67.07686121143205;38.09795968574286;72.75217503496711;-18320.37690427133;-18500.0;179.62309572867065
0.4120000000000003;-9966630310.0;-9966862793.0;860660.0;-116.59853624773719;-17.306407385639847;46.62675788447565;-12380.418759076285;-22500.0;10119.581240923715
0.4160000000000003;-9967211790.0;-9967159424.0;812163.0;-145.37013174007384;-71.81905539599806;34.266787642470206;-7192.898873084165;-19750.0;12557.101126915835
0.4200000000000003;-9967864309.0;-9967703247.0;845122.0;-163.12971112590478;-130.02660612939297;53.01806788982425;-4439.894846457733;-17083.333333333332;12643.438486875599
0.4240000000000003;-9968591080.0;-9968203125.0;736029.0;-181.69265062778268;-124.82334517352284;16.742141267697235;-4640.734875469477;-10583.333333333334;5942.598457863857
0.4280000000000003;-9969405901.0;-9968807373.0;658734.0;-203.70540286018542;-153.28941135809572;22.42788480104943;-5503.1880581006835;-7166.666666666667;1663.478608565984
0.43200000000000033;-9970336958.0;-9969422607.0;512722.0;-232.76411731300814;-147.8888652599454;-11.659410455037829;-7264.678613205681;-4250.0;-3014.678613205682
0.43600000000000033;-9971447744.0;-9970081787.0;311511.0;-277.69647382150777;-169.88100650399923;-26.526081624190766;-11233.089127124906;-1750.0;-9483.089127124906
0.44000000000000034;-9972771350.0;-9970944214.0;172302.0;-330.90146761378907;-210.1765750637725;-29.89413363171505;-13301.248448070324;-4916.666666666667;-8384.581781403658
0.44400000000000034;-9974273660.0;-9971982422.0;16397.0;-375.5774941556528;-261.0773566344902;-36.46697037123516;-11169.006635465934;-6416.666666666667;-4752.339968799267
0.44800000000000034;-9975892736.0;-9973163452.0;-195785.0;-404.76894965365966;-298.9302927621007;-61.119873302163114;-7297.863874501715;-10333.333333333334;3035.469458831619
0.45200000000000035;-9977560444.0;-9974558716.0;-348080.0;-416.92718145834215;-347.9136594891101;-59.86081706194568;-3039.557951170622;-10833.333333333334;7793.775382162712
0.45600000000000035;-9979199999.0;-9976096802.0;-447667.0;-409.88876155019284;-386.1667491199672;-50.11172578728389;1759.604977037327;-11000.0;12759.604977037327
0.46000000000000035;-9980775027.0;-9977541504.0;-659226.0;-393.7569093882846;-359.7244909777865;-93.89438732284123;4032.963040477057;-8250.0;12282.963040477058
0.46400000000000036;-9982226101.0;-9978980713.0;-834153.0;-362.7685202968578;-358.3333637489006;-95.24979122102218;7747.097272856707;-2916.6666666666665;10663.763939523373
0.46800000000000036;-9983521138.0;-9980612183.0;-728944.0;-323.7592288334239;-410.06033032708615;-15.241329551244462;9752.322865858474;-1083.3333333333333;10835.656199191808
0.47200000000000036;-9984598924.0;-9982045898.0;-685162.0;-269.44634524502277;-345.7278338034973;-42.86540454057001;13578.22089710028;-1666.6666666666667;15244.887563766946
0.47600000000000037;-9985426436.0;-9983073120.0;-867755.0;-206.87793160442135;-260.3972756874412;-94.12161350903625;15642.103410150356;4916.666666666667;10725.436743483688
