Zeit[sec];Sollposition[°];Istposition[°];Positionsschleppfehler[°];Sollgeschwindigkeit[°/s];Istgeschwindigkeit[°/s];Geschwindigkeitsdifferenz[°/s];Sollbeschleunigung[°/s*s];Istbeschleunigung[°/s*s];Beschleunigungsdifferenz[°/s*s]
0.0;9817499999.0;9817503662.0;-3663.0;0.0;-0.056885601349174975;-0.16289439870116112;0.0;-83.33333333333333;83.33333333333333
0.004;9817499999.0;9817503662.0;-3663.0;0.0;-0.629196807384491;0.4094168073341549;0.0;0.0;0.0
0.008;9817499999.0;9817509155.0;-9156.0;0.0;2.8420486088171604;-3.3914086087932223;0.0;0.0;0.0
0.012;9817499999.0;9817503662.0;-3663.0;0.0;0.7193608643785119;-0.9391408644288479;0.0;0.0;0.0
0.016;9817499999.0;9817503662.0;-3663.0;0.0;0.08017288590967656;-0.2999528859600127;0.0;0.0;0.0
0.02;9817499999.0;9817503662.0;-3663.0;0.0;-0.4914740566089749;0.2716940565586388;0.0;0.0;0.0
0.024;9817499999.0;9817492676.0;7323.0;0.0;-1.4515303018689156;1.8909103018744136;0.0;-83.33333333333333;83.33333333333333
0.028;9817499999.0;9817492676.0;7323.0;0.0;-2.094157391525805;2.5335373915313033;0.0;0.0;0.0
0.032;9817499999.0;9817503662.0;-3663.0;0.0;3.1869472502544522;-3.4067272503047885;0.0;0.0;0.0
0.036000000000000004;9817497129.0;9817492676.0;7323.0;-0.7177322692088133;-2.0206165659725666;2.4599965659780647;-179.4330673022033;83.33333333333333;-262.7664006355366
0.04000000000000001;9817468518.0;9817492676.0;6184.0;-7.152685011601683;-3.5001174770817163;3.5865878469311405;-1608.7381855982176;0.0;-1608.7381855982176
0.04400000000000001;9817327890.0;9817492676.0;-6875.0;-35.15689724764528;-0.3161907004192472;-3.3611943224828864;-7001.0530590109;-83.33333333333333;-6917.719725677566
0.048000000000000015;9816863277.0;9817465210.0;-52282.0;-116.15337266657625;-11.117052258841694;-10.238080537288178;-20249.11885473274;0.0;-20249.11885473274
0.05200000000000002;9815685866.0;9817311401.0;-166900.0;-294.35254739254987;-43.298980224289004;-33.82166677593056;-44549.79368149341;-1833.3333333333333;-42716.46034816007
0.05600000000000002;9813326905.0;9816668701.0;-269528.0;-589.7403926704199;-179.86594967827946;-22.637702681860304;-73846.96131946749;-7250.0;-66596.96131946749
0.060000000000000026;9808976750.0;9815136108.0;-378635.0;-1087.538737802901;-396.3203043710068;-36.822872449741226;-124449.58628312031;-22666.666666666668;-101782.91961645364
0.06400000000000003;9801933671.0;9812389526.0;-773568.0;-1760.7694621824057;-716.2468673675135;-115.54608289288262;-168307.68109487617;-41916.666666666664;-126391.0144282095
0.06800000000000003;9791502828.0;9807313843.0;-1104076.0;-2607.710775762951;-1315.2567521544247;-102.53522145634452;-211735.3283951363;-72833.33333333333;-138901.995061803
0.07200000000000004;9777047187.0;9799227905.0;-1388633.0;-3613.9100013222683;-2085.014633690767;-90.9270945926487;-251549.80638982932;-113750.0;-137799.80638982932
0.07600000000000004;9758018260.0;9787384644.0;-1552135.0;-4757.231531204666;-3000.189994153008;-94.6286059219824;-285830.3824705994;-165250.0;-120580.38247059938
0.08000000000000004;9734015815.0;9771289673.0;-1702458.0;-6000.611068024453;-4069.827663902819;-93.64324103170838;-310844.88420494675;-211000.0;-99844.88420494676
0.08400000000000005;9704831363.0;9750399170.0;-1786008.0;-7296.112553076366;-5289.865437237732;-60.80798292158124;-323875.3712629782;-248666.66666666666;-75208.70459631155
0.08800000000000005;9670455780.0;9724586792.0;-2001518.0;-8593.89539147932;-6524.051496014729;-103.01132164858882;-324445.7096007386;-279250.0;-45195.70960073861
0.09200000000000005;9631077482.0;9693468018.0;-2095035.0;-9844.574025202304;-7835.007397126339;-93.7670445060412;-312669.65843074606;-303416.6666666667;-9252.991764079354
0.09600000000000006;9587063537.0;9657328491.0;-2284172.0;-11003.48579172883;-9099.531961621575;-119.68408995650861;-289727.94163163146;-317083.3333333333;27355.391701701876
0.10000000000000006;9538910066.0;9615964966.0;-2107594.0;-12038.367042256643;-10394.036881957732;-29.15499555644965;-258720.31263195322;-321166.6666666667;62446.35403471347
0.10400000000000006;9487179876.0;9570316772.0;-2087441.0;-12932.547012882054;-11468.118096983999;-64.13790192758461;-223544.99265635287;-313916.6666666667;90371.67401031383
0.10800000000000007;9432450945.0;9520625610.0;-1943608.0;-13682.23210967536;-12441.678357557415;-61.76979416292852;-187421.27419832652;-294333.3333333333;106912.05913500681
0.11200000000000007;9375277802.0;9467731934.0;-1948118.0;-14293.285002980603;-13246.362278059118;-95.07090610645537;-152763.22332631072;-261000.0;108236.7766736893
0.11600000000000008;9316158355.0;9411855469.0;-1752105.0;-14779.860967090157;-14003.82781155648;-21.410836498978824;-121643.99102738843;-225000.0;103356.00897261157
0.12000000000000008;9255517653.0;9353836670.0;-1663807.0;-15160.174908904419;-14505.908514425479;-76.54428752841159;-95078.48545356546;-193500.0;98421.51454643454
0.12400000000000008;9193713726.0;9294164429.0;-1702763.0;-15450.980926794118;-14960.963990633294;-69.0002609411822;-72701.50447242486;-154416.66666666666;81715.1621942418
0.12800000000000009;9131052137.0;9232509155.0;-1140478.0;-15665.396481096192;-15414.819320839517;73.14409168868951;-53603.888575518344;-132666.66666666666;79062.77809114831
0.1320000000000001;9067801598.0;9170485840.0;-1254324.0;-15812.634132616127;-15501.589089020596;-107.95975330021793;-36809.41287998394;-100583.33333333333;63773.92045334939
0.1360000000000001;9004197655.0;9107622070.0;-1280627.0;-15900.985028926969;-15749.363507679926;-49.99168051707784;-22087.72407771039;-73916.66666666667;51828.942588956284
0.1400000000000001;8940425507.0;9044110107.0;-1155871.0;-15943.036246784994;-15860.6603925381;-55.49302936820095;-10512.80446450619;-52916.666666666664;42403.862202160475
0.1440000000000001;8876604972.0;8980675049.0;-1389376.0;-15955.132941751945;-15857.913257523269;-142.58930120108744;-3024.173741737741;-32083.333333333332;29059.15959159559
0.1480000000000001;8812796067.0;8916470947.0;-975621.0;-15952.225402578493;-16034.205550181345;28.082286707336607;726.8847933628422;-30333.333333333332;31060.218126696174
0.1520000000000001;8749017172.0;8852805176.0;-1125490.0;-15944.722918462701;-15873.205827541457;-148.23284128646992;1875.6210289479895;-15750.0;17625.62102894799
0.1560000000000001;8685264672.0;8789111938.0;-1229327.0;-15938.124284950805;-15967.456887576363;-55.570553638910496;1649.6583779739922;750.0;899.6583779739922
0.16000000000000011;8621527925.0;8724836426.0;-722421.0;-15934.186168614733;-16017.991333087042;32.49544984030945;984.5290840180496;-7833.333333333333;8817.862417351382
0.16400000000000012;8557797540.0;8660989380.0;-621783.0;-15932.59535555342;-15983.440383957268;9.53185673241569;397.7032653283459;2583.3333333333335;-2185.6300680049876
0.16800000000000012;8494068122.0;8596939087.0;-305807.0;-15932.353746071594;-16012.246112052926;60.31918106010198;60.40237045635877;-10666.666666666666;10727.069037123025
0.17200000000000013;8430337832.0;8533135986.0;-232745.0;-15932.57181345532;-15947.376965428777;0.9033830894659332;-54.51684593163009;4250.0;-4304.51684593163
0.17600000000000013;8366606874.0;8469497681.0;-324210.0;-15932.73858846247;-15942.470767884031;-9.423454178529937;-41.693751787079236;6833.333333333333;-6875.027085120412
0.18000000000000013;8302876136.0;8405963745.0;-520823.0;-15932.683823117372;-15869.619047950548;-94.26699145064231;13.69133627440533;5666.666666666667;-5652.975330392262
0.18400000000000014;8239146401.0;8342435303.0;-723248.0;-15932.433107399467;-15922.449663471152;-53.66111419033405;62.67892947607834;11666.666666666666;-11603.987737190588
0.18800000000000014;8175418092.0;8278489380.0;-507667.0;-15932.076283340031;-15955.347607343781;-7.6971517996043985;89.2060148589735;-5250.0;5339.2060148589735
0.19200000000000014;8111691323.0;8214977417.0;-724879.0;-15931.69172834776;-15875.85971135286;-99.92612991983151;96.138748067915;83.33333333333333;12.805414734581674
0.19600000000000015;8047966032.0;8150866699.0;-341868.0;-15931.321801143693;-16034.740728946917;82.30274488669602;92.48180101667458;-6916.666666666667;7009.148467683342
0.20000000000000015;7984242118.0;8087211914.0;-413275.0;-15930.977789397793;-15880.395154126969;-75.94865711648526;86.00293647486978;-3500.0;3586.00293647487
0.20400000000000015;7920519481.0;8023634033.0;-560148.0;-15930.658522420548;-15918.369612257955;-46.42684114591793;79.81674431130159;5083.333333333333;-5003.516589022031
0.20800000000000016;7856798573.0;7959682617.0;-332148.0;-15930.226267090005;-15965.744217132587;14.962116408945803;108.06383263570751;-2333.3333333333335;2441.397165969041
0.21200000000000016;7793081784.0;7896192627.0;-564116.0;-15929.196450487509;-15896.97516234105;-67.3608082998453;257.4541506241985;7750.0;-7492.5458493758015
0.21600000000000016;7729374163.0;7832296143.0;-386918.0;-15926.904457508974;-15967.492499872082;14.456926227978329;572.998244633709;-5416.666666666667;5989.664911300376
0.22000000000000017;7665689785.0;7768344727.0;-148680.0;-15921.09383268795;-15983.216590448425;46.002045282832114;1452.656205256062;-1666.6666666666667;3119.322871922729
0.22400000000000017;7602068498.0;7704711914.0;-214326.0;-15905.320951883783;-15916.114593651042;-21.359031553736713;3943.2202010416404;-2750.0;6693.22020104164
0.22800000000000017;7538587406.0;7640853882.0;-15794.0;-15870.272179192216;-15951.167706882783;35.34588835253999;8762.193172891784;-583.3333333333334;9345.526506225118
0.23200000000000018;7475367054.0;7577484741.0;-212724.0;-15805.087371834104;-15822.019444600992;-82.2610757711609;16296.20183952784;5333.333333333333;10962.868506194507
0.23600000000000018;7412585343.0;7514071655.0;-178172.0;-15695.426888230311;-15876.884426607523;21.561321117682382;27415.120900948295;11250.0;16165.120900948295
0.24000000000000019;7350490699.0;7450812378.0;33139.0;-15523.660311593045;-15800.235480092451;40.233174331469854;42941.64415931664;6250.0;36691.64415931664
0.2440000000000002;7289360273.0;7388135376.0;198272.0;-15282.605781483997;-15669.191467908546;53.12112156610965;60263.63252726196;15250.0;45013.63252726196
0.2480000000000002;7229562089.0;7326386719.0;230556.0;-14949.545206453911;-15429.95845240789;14.699410741086467;83265.14375752141;21250.0;62015.1437575214
0.25200000000000017;7171478249.0;7265703735.0;305678.0;-14520.959373838063;-15151.618313109953;17.994096666581754;107146.45815396216;46000.0;61146.45815396216
0.25600000000000017;7115520886.0;7206679688.0;203445.0;-13989.340080146776;-14732.623182637602;-36.739264644598734;132904.82342282168;63916.666666666664;68988.156756155
0.2600000000000002;7062097505.0;7149325562.0;306801.0;-13355.844556789743;-14297.569247531907;3.285431978001725;158373.88083925817;84416.66666666667;73957.21417259148
0.2640000000000002;7011591601.0;7094157715.0;509509.0;-12626.475571517885;-13776.528360279113;65.8149399768281;182342.2463179645;104333.33333333333;78008.91298463118
0.2680000000000002;6964351540.0;7041654053.0;731677.0;-11810.014514519358;-13075.487254348238;49.01483599619496;204115.26424963176;124833.33333333333;79281.93091629844
0.2720000000000002;6920674696.0;6992352905.0;804682.0;-10919.210536591007;-12285.194469627742;26.440223607722146;222700.99448208793;152583.33333333334;70117.66114875459
0.2760000000000002;6880801187.0;6946463013.0;848137.0;-9968.376834894736;-11449.336323433794;38.61593584497132;237708.42542406762;181333.33333333334;56375.09209073428
0.2800000000000002;6844917385.0;6903890991.0;1230400.0;-8970.95015907465;-10600.857824126177;127.24243892294726;249356.66895502163;201500.0;47856.66895502163
0.2840000000000002;6813151927.0;6865488281.0;1319172.0;-7941.363999975291;-9560.137476544898;60.80376260021512;257396.53977483953;216250.0;41146.53977483954
0.2880000000000002;6785578429.0;6831101074.0;1432059.0;-6893.374169949975;-8579.997710115784;97.34161891165058;261997.45750632905;234666.66666666666;27330.790839662397
0.2920000000000002;6762208947.0;6800817261.0;1588330.0;-5842.370250219476;-7525.183944682349;88.59860607001428;262750.9799326249;247083.33333333334;15667.646599291544
0.2960000000000002;6742951566.0;6774801636.0;1672721.0;-4814.344933461806;-6476.906239506964;94.46139638362274;257006.32918941733;259333.33333333334;-2327.004143916014
0.3000000000000002;6727582114.0;6752828979.0;1881647.0;-3842.3628525921754;-5440.928006122239;112.89432500940438;242995.52021740773;255416.66666666666;-12421.14644925894
0.3040000000000002;6715759802.0;6735003662.0;1966992.0;-2955.5778745621787;-4439.210048742745;122.23675728532999;221696.24450749916;262416.6666666667;-40720.42215916753
0.3080000000000002;6707058569.0;6720869751.0;2115056.0;-2175.308149242148;-3509.1453973999733;139.58708507621077;195067.4313300077;252583.33333333334;-57515.90200332564
0.3120000000000002;6700999064.0;6710361328.0;2017841.0;-1514.876227752641;-2584.036896710001;53.69823079208891;165107.98037237674;243416.66666666666;-78308.68629428992
0.3160000000000002;6697081933.0;6702714844.0;1992209.0;-979.2825950148434;-1894.744709994547;96.2481454524634;133898.4081844494;225916.66666666666;-92018.25848221728
0.32000000000000023;6694816941.0;6697551270.0;1930217.0;-566.2480448332719;-1264.6527399900706;74.07432067747914;103258.63754539288;198583.33333333334;-95324.69578794047
0.32400000000000023;6693733458.0;6694403687.0;1803163.0;-270.8706551788094;-791.3388252758831;80.86951180132792;73844.34741361564;172500.0;-98655.65258638436
0.32800000000000024;6693420192.0;6692590942.0;1809685.0;-78.31662935603633;-434.14826523593814;91.17371581144727;48138.50645569326;134250.0;-86111.49354430674
0.33200000000000024;6693528175.0;6692063599.0;1552001.0;26.99576017817649;-137.13136909773945;33.99470960844836;26328.097383553206;110250.0;-83921.9026164468
0.33600000000000024;6693594454.0;6691997681.0;1467160.0;16.569649714487735;-13.343333516117186;63.68277485924866;-2606.5276159221885;78500.0;-81106.52761592218
0.34000000000000025;6693684785.0;6692343750.0;1210071.0;22.5828235124452;82.5273257674314;12.321839737396544;1503.293449489366;54750.0;-53246.70655051064
0.34400000000000025;6693745088.0;6692574463.0;1055417.0;15.075701200454114;48.804685577269645;33.53520408329191;-1876.7805779977712;29500.0;-31376.78057799777
0.34800000000000025;6693769154.0;6692739258.0;968907.0;6.01652343444421;48.74349008720368;28.96206328711321;-2264.7944415024763;8500.0;-10764.794441502476
0.35200000000000026;6693769744.0;6692843628.0;910648.0;0.1474597952491492;19.311965670470148;46.854780140179514;-1467.265909798765;166.66666666666666;-1633.9325764654318
0.35600000000000026;6693761270.0;6692832642.0;936605.0;-2.1184674702420576;3.901415924463421;56.037496600850346;-566.4818163728017;-6583.333333333333;6016.851516960532
0.36000000000000026;6693752905.0;6692832642.0;933738.0;-2.0912613253573737;0.8756731634251773;54.43205092087214;6.801536221170967;-3166.6666666666665;3173.4682028878374
0.36400000000000027;6693748117.0;6692827148.0;930854.0;-1.1969875622862896;-0.7896155780404807;54.54645183675334;223.56844076777105;-3500.0;3723.568440767771
0.36800000000000027;6693746780.0;6692838135.0;912920.0;-0.33426518192523286;2.5924301141388715;50.44591472354289;215.68059509026418;-250.0;465.68059509026415
0.3720000000000003;6693747424.0;6692854614.0;893000.0;0.16104186271262083;4.389773911379278;48.33005458478794;123.82676115946342;250.0;-126.17323884053658
0.3760000000000003;6693748646.0;6692876587.0;870456.0;0.30555633449644365;4.675936096671969;47.40848521146699;36.1286179459557;333.3333333333333;-297.20471538737763
0.3800000000000003;6693749629.0;6692915039.0;832866.0;0.2458606313498345;9.901513571728021;40.285883831317776;-14.923925786652289;500.0;-514.9239257866523
0.3840000000000003;6693750109.0;6692958984.0;790045.0;0.11979676507142716;11.330859199795873;36.35288195664392;-31.515966569601833;583.3333333333334;-614.8492999029352
0.3880000000000003;6693750139.0;6693002930.0;746883.0;0.0077063123479252;12.239384982809424;32.769823074812365;-28.02261318087549;500.0;-528.0226131808755
0.3920000000000003;6693749896.0;6693035889.0;714229.0;-0.06075014845890571;11.38372800192982;31.546105305493747;-17.114115201707726;250.0;-267.1141152017077
0.3960000000000003;6693749562.0;6693079834.0;670208.0;-0.08362352738855906;14.183679029416293;26.01002214579567;-5.718344732413339;-83.33333333333333;77.61498860091999
0.4000000000000003;6693749279.0;6693129272.0;620492.0;-0.07073135368306378;13.642024384539575;23.518077641733512;3.22304342637382;250.0;-246.7769565736262
0.4040000000000003;6693749131.0;6693167725.0;581726.0;-0.03712438896455225;9.006352691728623;25.81882935002387;8.401741179627884;166.66666666666666;-158.26492548703877
0.4080000000000003;6693749135.0;6693217163.0;532058.0;0.0010502591626354169;12.229720632277429;19.636277110380178;9.543662031796917;166.66666666666666;-157.12300463486974
0.4120000000000003;6693749260.0;6693217163.0;531970.0;0.031182764512997334;-2.0054395605959;33.90145390736908;7.533126337590479;-500.0;507.5331263375905
0.4160000000000003;6693803995.0;6693272095.0;477089.0;13.68393323557062;10.368388581443579;18.269725065760618;3413.187617764406;-416.6666666666667;3829.8542844310723
0.4200000000000003;6693813902.0;6693299561.0;471400.0;2.476595335469518;5.989885508075357;27.73822293634903;-2801.8344750252754;-166.66666666666666;-2635.167808358609
0.4240000000000003;6693824576.0;6693381958.0;425644.0;2.6686581667475364;20.380217331241816;14.318824956809166;48.01570781950459;333.3333333333333;-285.3176255138287
0.4280000000000003;6693835973.0;6693420410.0;397666.0;2.849195034313503;8.857779499322175;17.620593743253146;45.13421689149166;916.6666666666666;-871.532449775175
0.43200000000000033;6693848197.0;6693464355.0;364677.0;3.055896741823049;10.216945718873292;14.402787126830885;51.675426877386464;0.0;51.675426877386464
0.43600000000000033;6693861405.0;6693486328.0;354424.0;3.3020865923977687;5.258220862731338;18.937310335706773;61.54746264367994;-250.0;311.5474626436799
0.44000000000000034;6693875720.0;6693535767.0;317595.0;3.578829744787584;12.359031964782625;9.848964063297972;69.1857880974538;-750.0;819.1857880974538
0.44400000000000034;6693891177.0;6693557739.0;309264.0;3.8640961789133104;4.675670498639345;17.29053791091981;71.31660853143163;83.33333333333333;-12.016724801901704
0.44800000000000034;6693907704.0;6693596191.0;285574.0;4.131915813975354;10.912468963634224;9.912282923026579;66.95490876551091;-250.0;316.95490876551094
0.45200000000000035;6693925177.0;6693607178.0;290461.0;4.368171225717082;6.755486961703748;14.640784034805087;59.063852935431925;-250.0;309.06385293543195
0.45600000000000035;6693943436.0;6693618164.0;296371.0;4.564856371544553;1.945129800785333;20.061148336774625;49.17128645686786;-416.6666666666667;465.83795312353453
0.46000000000000035;6693962281.0;6693634644.0;297670.0;4.711168493285673;2.664134032897651;19.64083547093689;36.57803043528007;-250.0;286.5780304352801
0.46400000000000036;6693981504.0;6693782959.0;167842.0;4.80578919792065;37.00759087102115;-22.315356481347475;23.65517615874424;1083.3333333333333;-1059.678157174589
0.46800000000000036;6694000895.0;6693892822.0;76970.0;4.8477982052828805;18.189552419368177;-8.823525592817715;10.50225184055753;2916.6666666666665;-2906.164414826109
0.47200000000000036;6694020199.0;6693843384.0;145696.0;4.825922080350895;-4.833319637581706;18.396970332306203;-5.4690312329963575;-166.66666666666666;161.1976354336703
0.47600000000000037;6694039152.0;6693848877.0;159558.0;4.738238621376584;2.148553081430495;12.26380543559852;-21.920864743577795;-1833.3333333333333;1811.4124685897555
0.48000000000000037;6694057472.0;6693914795.0;112805.0;4.580047341503545;28.970952135402708;-17.411366996067095;-39.54781996825973;-3083.3333333333335;3043.7855133650737
0.4840000000000004;6694074792.0;6694085083.0;-38779.0;4.32994662879391;26.389760290801526;-24.040468269873024;-62.52517817740877;3666.6666666666665;-3729.191844844075
0.4880000000000004;6694090726.0;6694013672.0;50560.0;3.9834030373030926;-9.985045584257692;17.500458803012307;-86.63589787270432;500.0;-586.6358978727043
