Zeit[sec];Sollposition[°];Istposition[°];Positionsschleppfehler[°];Sollgeschwindigkeit[°/s];Istgeschwindigkeit[°/s];Geschwindigkeitsdifferenz[°/s];Sollbeschleunigung[°/s*s];Istbeschleunigung[°/s*s];Beschleunigungsdifferenz[°/s*s]
0.0;0.0;-258179.0;258179.0;-0.0;6.937628999363093;4.164068000636907;0.0;0.0;0.0
0.004;0.0;-252686.0;252686.0;-0.0;8.011885101278045;2.8536128987219556;0.0;0.0;0.0
0.008;0.0;-263672.0;263672.0;-0.0;-0.39123362144465706;11.729129621444658;0.0;0.0;0.0
0.012;0.0;-247192.0;247192.0;-0.0;3.978239516835042;6.651016483164959;0.0;166.66666666666666;-166.66666666666666
0.016;0.0;-247192.0;247192.0;-0.0;2.7238598530969136;7.9053961469030885;0.0;0.0;0.0
0.02;0.0;-247192.0;247192.0;-0.0;1.2952532797140164;9.334002720285985;0.0;-83.33333333333333;83.33333333333333
0.024;0.0;-247192.0;247192.0;-0.0;0.31156447356722244;10.31769152643278;0.0;-166.66666666666666;166.66666666666666
0.028;0.0;-247192.0;247192.0;-0.0;-0.3384665034467348;10.967722503446737;0.0;0.0;0.0
0.032;0.0;-247192.0;247192.0;-0.0;-1.3342783040465664;11.963534304046568;0.0;0.0;0.0
0.036000000000000004;0.0;-236206.0;236206.0;-0.0;0.3470098586533509;9.80984814134665;0.0;83.33333333333333;-83.33333333333333
0.04000000000000001;0.0;-230713.0;230713.0;-0.0;1.4121170701498336;8.508541929850168;0.0;83.33333333333333;-83.33333333333333
0.04400000000000001;0.0;-219727.0;219727.0;-0.0;2.9272984676338067;6.520962532366194;0.0;166.66666666666666;-166.66666666666666
0.048000000000000015;5714.0;-214233.0;214233.0;1.4286225971545943;2.2145030735598583;6.997515926440141;357.1556492886486;0.0;357.1556492886486
0.05200000000000002;62663.0;-214233.0;216498.0;14.237185466061078;-0.0829166586125391;9.958757196156254;3202.140717226621;0.0;3202.140717226621
0.05600000000000002;342577.0;-208740.0;237000.0;69.97865356275301;0.6527975282398017;16.03684927711118;13935.367024172983;-166.66666666666666;14102.03369083965
0.060000000000000026;1267006.0;-197754.0;371065.0;231.10717892395323;5.5584006237158174;46.66015080918459;40282.13134030005;-83.33333333333333;40365.46467363339
0.06400000000000003;3607477.0;-159302.0;866761.0;585.1176594757901;10.748425020823666;160.05928404980742;88502.62013795922;416.6666666666667;88085.95347129255
0.06800000000000003;8488551.0;49438.0;2140112.0;1220.2685469782666;59.59790383725928;402.9496027584504;158787.7218756191;2166.6666666666665;156621.05520895246
0.07200000000000004;17266928.0;812988.0;4716045.0;2194.594156632352;221.71132506889697;815.9493919095246;243581.4024135214;8833.333333333334;234748.06908018806
0.07600000000000004;31353425.0;3988037.0;7952403.0;3521.6239835565952;861.3925723846695;1083.4125967523314;331757.45673106075;37250.0;294507.45673106075
0.08000000000000004;52078926.0;11535645.0;11264923.0;5181.375053834194;1985.1805289758893;1214.242969071813;414937.7675693996;107333.33333333333;307604.4342360663
0.08400000000000005;80624763.0;25202637.0;14285587.0;7136.458834497795;3518.0404674422352;1268.1535574768204;488770.9451659002;211750.0;277020.9451659002
0.08800000000000005;117947941.0;46400757.0;16874709.0;9330.794015655558;5405.074952224481;1267.34765553135;548583.7952894408;325833.3333333333;222750.46195610747
0.09200000000000005;164670921.0;76250610.0;19004949.0;11680.744575581344;7578.059034758123;1234.1766505541937;587487.6399814466;423166.6666666667;164320.9733147799
0.09600000000000006;221002297.0;115971680.0;20282502.0;14082.843159572729;10049.29773066502;1072.5051173215197;600524.6459978461;505416.6666666667;95107.97933117948
0.10000000000000006;286728053.0;166030884.0;20700780.0;16431.438241104173;12648.929741567274;860.5736882142173;587148.7703828611;574000.0;13148.77038286113
0.10400000000000006;361244710.0;227257690.0;19473776.0;18629.163483284523;15434.26535794771;403.0566262635093;549431.3105450874;629250.0;-79818.6894549126
0.10800000000000007;443628687.0;298888550.0;16999081.0;20595.99328078682;17979.71819096028;40.28295290564347;491707.4493755745;664583.3333333334;-172875.8839577589
0.11200000000000007;532756317.0;379000854.0;14471195.0;22281.90636967405;20097.93443827399;-79.5695833362879;421478.2722218069;648416.6666666666;-226938.39444485967
0.11600000000000008;627446680.0;467210083.0;11273598.0;23672.58967237082;22107.97669758123;-370.30489878737717;347670.8256741931;594833.3333333334;-247162.50765914028
0.12000000000000008;726576977.0;562109985.0;7667349.0;24782.57294942643;23783.371448338352;-630.2632685768331;277495.8192639024;520750.0;-243254.18073609762
0.12400000000000008;829156812.0;661975708.0;4219760.0;25644.95758408698;24934.54562681582;-648.5637835578818;215596.15866513742;450416.6666666667;-234820.50800152926
0.12800000000000009;934372754.0;764401245.0;2266192.0;26303.984200480892;25669.22305284242;-453.78562279699327;164756.65409847806;350000.0;-185243.34590152194
0.1320000000000001;1041596415.0;869804077.0;468158.0;26805.914021056884;26310.481393089856;-389.15229386228384;125482.45514399787;259000.0;-133517.54485600215
0.1360000000000001;1150351410.0;978151245.0;-1882484.0;27188.747472133997;27163.433445968247;-745.2502103628467;95708.3627692782;185166.66666666666;-89458.30389738845
0.1400000000000001;1260260103.0;1087157593.0;-3069785.0;27477.172096275073;27183.120600966773;-360.36084837292947;72106.15603526912;167916.66666666666;-95810.51063139754
0.1440000000000001;1370998298.0;1196823120.0;-3531867.0;27684.547361295845;27407.216781692863;-258.2268984741022;51843.816255192905;103333.33333333333;-51489.51707814042
0.1480000000000001;1482278885.0;1306571045.0;-3048974.0;27820.14533108509;27545.001828466146;-118.4045498809246;33899.49244731088;61083.333333333336;-27183.84088602246
0.1520000000000001;1593864703.0;1418247070.0;-3776615.0;27896.45326127504;27805.82001331566;-231.11971016013558;19076.982547488115;39750.0;-20673.017452511885
0.1560000000000001;1705585786.0;1529697876.0;-3828992.0;27930.269529833597;27969.26047149612;-284.3014137563696;8454.067139638937;42333.333333333336;-33879.2661936944
0.16000000000000011;1817340305.0;1641148682.0;-3642138.0;27938.62819046483;27807.315716441775;-54.51388384093298;2089.6651578086676;47666.666666666664;-45577.001508858
0.16400000000000012;1929080680.0;1753236694.0;-3996603.0;27935.092536478438;27971.666067124654;-210.13453015343111;-883.9134965983249;11500.0;-12383.913496598325
0.16800000000000012;2040794422.0;1863929443.0;-2940637.0;27928.43426573249;27750.086873108485;60.64311826822086;-1664.5676864873167;2250.0;-3914.5676864873167
0.17200000000000013;2152486392.0;1975314331.0;-2595627.0;27922.990981415882;27800.801665116458;20.05972676928286;-1360.8210791517195;-14000.0;12639.17892084828
0.17600000000000013;2264166257.0;2087594604.0;-3170634.0;27919.96499300709;28099.53667988827;-309.55884003085157;-756.4971021984093;-416.6666666666667;-339.8304355317426
0.18000000000000013;2375841996.0;2198622437.0;-2511169.0;27918.933428641565;27738.063902414535;75.77894912237753;-257.8910913807704;13666.666666666666;-13924.557758047436
0.18400000000000014;2487518008.0;2309490967.0;-1701399.0;27919.001832862235;27686.63812462659;159.77544262858282;17.10105516758631;-6750.0;6767.101055167586
0.18800000000000014;2599195713.0;2420991211.0;-1525771.0;27919.424804716182;27945.690265102196;-92.33182393352763;105.74296348659118;-14500.0;14605.742963486591
0.19200000000000014;2710874890.0;2532579346.0;-1437225.0;27919.792933764144;27856.26888926617;1.0995695212404826;92.03226199042547;-1750.0;1842.0322619904255
0.19600000000000015;2822554814.0;2644277344.0;-1456944.0;27919.979646562544;27898.443846973885;-41.524155192943;46.678199600137305;14750.0;-14703.321800399863
0.20000000000000015;2934234873.0;2755662231.0;-1162366.0;27920.013534196347;27896.64507068923;-26.762003224044747;8.471908450701449;10250.0;-10241.528091549299
0.20400000000000015;3045914758.0;2867102051.0;-922213.0;27919.969825087715;27808.487788729843;71.84904072969948;-10.927277157861681;-4583.333333333333;4572.406056175471
0.20800000000000016;3157594406.0;2978585815.0;-725988.0;27919.91078952873;27882.888693653927;5.889828003470029;-14.758889746190107;-6000.0;5985.24111025381
0.21200000000000016;3269273884.0;3090228882.0;-689263.0;27919.868124083496;27969.39355555094;-79.08519003188849;-10.666361308722117;1416.6666666666667;-1427.3330279753889
0.21600000000000016;3380953283.0;3202487183.0;-1267982.0;27919.848444802687;27978.666832427716;-113.29583916990669;-4.9198202023035265;12916.666666666666;-12921.58648686897
0.22000000000000017;3492632671.0;3313811646.0;-912997.0;27919.845557997236;27860.169604495943;20.43209605305674;-0.7217013626359403;6083.333333333333;-6084.055034695969
0.22400000000000017;3604312078.0;3424784546.0;-206502.0;27919.850487706644;27797.82754070223;113.14028883546052;1.2324273520789575;-7916.666666666667;7917.899094018746
0.22800000000000017;3715991510.0;3536993408.0;-735969.0;27919.856617661106;27998.200245841792;-109.99938337692583;1.532488615339389;-11000.0;11001.53248861534
0.23200000000000018;3827670959.0;3648861694.0;-924838.0;27919.860843211132;27991.049733318578;-110.96487806577352;1.0563875066509354;7583.333333333333;-7582.276945826682
0.23600000000000018;3939350415.0;3760136719.0;-520424.0;27919.862668187237;27809.280847967497;88.19917714049006;0.45624402628163807;12416.666666666666;-12416.210422640384
0.24000000000000019;4051029871.0;3871889648.0;-593902.0;27919.862829441747;27911.933081499286;-17.60932547273478;0.04031362732348498;-5916.666666666667;5916.7069802939905
0.2440000000000002;4162709326.0;3983203125.0;-227923.0;27919.862268064102;27867.39793944668;42.66409298221333;-0.1403444111929275;-9916.666666666666;9916.526322255473
0.2480000000000002;4274388777.0;4094609985.0;44673.0;27919.861639749055;27830.69397610951;91.08956880989354;-0.1570787617310998;-4583.333333333333;4583.176254571602
0.25200000000000017;4386068228.0;4207005615.0;-671503.0;27919.861231000184;28093.65230704887;-202.66491381255037;-0.10218721763521899;7000.0;-7000.102187217635
0.25600000000000017;4497747677.0;4318709106.0;-695543.0;27919.861069736104;27946.32352770968;-56.37039534164796;-0.040316020204045344;13916.666666666666;-13916.70698268687
0.2600000000000002;4609427127.0;4429863281.0;-170268.0;27919.86107019466;27753.317909138783;159.22173631773694;0.00011463907867437229;833.3333333333334;-833.3332186942547
0.2640000000000002;4721106577.0;4541616211.0;-243749.0;27919.861134946495;27979.614424789546;-70.23456092673223;0.016187958863156382;-12000.0;12000.016187958863
0.2680000000000002;4832786027.0;4653566895.0;-514983.0;27919.861200034135;27999.54497753564;-101.82815067056072;0.016271909771603532;-2833.3333333333335;2833.349605243105
0.2720000000000002;4944465477.0;4765292358.0;-560996.0;27919.861239834732;27864.982276963663;30.756055409674445;0.009950149433279876;9750.0;-9749.990049850567
0.2760000000000002;5056144927.0;4876710205.0;-299393.0;27919.861254019947;27916.635786135557;-9.648469702515285;0.0035463035601424053;1666.6666666666667;-1666.6631203631066
0.2800000000000002;5167824378.0;4988199463.0;-109201.0;27919.861252459345;27866.937010310794;48.228591914947174;-0.0003901504896930419;-7666.666666666667;7666.666276516177
0.2840000000000002;5279503828.0;5100051270.0;-281557.0;27919.861245238888;27917.767489981074;-10.013187662996643;-0.0018051141523756087;-6000.0;5999.998194885848
0.2880000000000002;5391183278.0;5211765747.0;-316584.0;27919.86123858207;27997.08961622546;-90.84147861977544;-0.0016642043192405254;6000.0;-6000.001664204319
0.2920000000000002;5502862728.0;5323738403.0;-609790.0;27919.861234751457;27949.928557463238;-56.28828482136305;-0.0009576533557265066;9916.666666666666;-9916.667624320022
0.2960000000000002;5614542179.0;5435436401.0;-628338.0;27919.861233541327;27886.106968690678;6.735734411584417;-0.0003025324986083433;1916.6666666666667;-1916.6669691991654
0.3000000000000002;5726221629.0;5546431274.0;56240.0;27919.86123384827;27816.519962875223;105.75959141886415;7.67358869779855e-05;-8250.0;8250.000076735887
0.3040000000000002;5837901079.0;5658348999.0;-182035.0;27919.861234639025;27939.666737986907;-27.63300931679987;0.00019768867787206545;-10166.666666666666;10166.666864355344
0.3080000000000002;5949580529.0;5770590820.0;-744406.0;27919.861235313612;28045.674802446927;-157.82302628694742;0.0001686466930550523;4583.333333333333;-4583.33316468664
0.3120000000000002;6061259980.0;5881602173.0;-76309.0;27919.861235678512;27782.732631127412;133.8473167744596;9.122504707193002e-05;10250.0;-10249.999908774953
0.3160000000000002;6172939430.0;5993179321.0;25994.0;27919.861235777014;27855.920886462674;65.058090991668;2.4625478545203805e-05;-6166.666666666667;6166.6666912921455
0.32000000000000023;6284618880.0;6105108032.0;-223267.0;27919.861235731496;28019.14215438125;-108.8813996657882;-1.1379597708582878e-05;-9000.0;8999.999988620402
0.32400000000000023;6396298266.0;6216558838.0;5377.0;27919.84512127542;27862.128493740453;57.96395301793018;-4.028614019262022;4250.0;-4254.028614019262
0.32800000000000024;6507977171.0;6328668823.0;-425183.0;27919.724816585454;27988.487380684368;-86.91540308258845;-30.076172491135367;9083.333333333334;-9113.40950582447
0.33200000000000024;6619654330.0;6440564575.0;-641740.0;27919.288614698817;28029.950466780145;-137.74777001389884;-109.0504716594296;5750.0;-5859.05047165943
0.33600000000000024;6731327105.0;6551630859.0;-29808.0;27918.1924088728;27720.4703605247;197.80046973862773;-274.05145650391205;-2333.3333333333335;2059.2818768294214
0.34000000000000025;6842990755.0;6663416748.0;-140266.0;27915.911118597087;27959.240385074703;-46.415280987275764;-570.3225689285318;-12333.333333333334;11763.010764404802
0.34400000000000025;6954637466.0;6775477295.0;-531630.0;27911.676478876907;28077.59592944889;-183.16168344419202;-1058.6599300449961;583.3333333333334;-1641.9932633783296
0.34800000000000025;7066255796.0;6887323608.0;-720956.0;27904.581118164246;27863.822832185204;19.421576864260715;-1773.840178165301;12000.0;-13773.840178165301
0.35200000000000026;7177831060.0;6998615112.0;-376902.0;27893.814793965536;27875.516671929323;17.164633632110053;-2691.581049677552;916.6666666666666;-3608.2477163442186
0.35600000000000026;7289346362.0;7109741821.0;97810.0;27878.824093042003;27831.109977813376;73.44986540902391;-3747.675230883033;-13416.666666666666;9668.991435783633
0.36000000000000026;7400775637.0;7221741943.0;-350570.0;27857.31749206929;27919.48188664899;-46.62209743909261;-5376.650243178119;-11666.666666666666;6290.016423488547
0.36400000000000027;7512048567.0;7333286133.0;-413215.0;27818.2311459841;27948.398602941357;-95.7819500061778;-9771.58652129765;6333.333333333333;-16104.919854630982
0.36800000000000027;7622989351.0;7444660034.0;-419325.0;27735.194709942567;27828.65572070777;-4.740313897065789;-20759.109010383327;8833.333333333334;-29592.442343716662
0.3720000000000003;7733252193.0;7556314087.0;-931223.0;27565.7090451453;27841.291317380645;-95.79638828357201;-42371.41619931663;-4583.333333333333;-37788.08286598329
0.3760000000000003;7842237171.0;7666693726.0;-636925.0;27246.24326757764;27670.089271616358;-28.99421293495834;-79866.44439191514;-14666.666666666666;-65199.777725248474
0.3800000000000003;7948979457.0;7777117310.0;-1300347.0;26685.5701852222;27546.575529556227;-162.45151449655168;-140168.27058885974;-21583.333333333332;-118584.93725552641
0.3840000000000003;8052098073.0;7887238770.0;-3318534.0;25779.652922915066;27486.96113159354;-603.8410728625349;-226479.31557678385;-28250.0;-198229.31557678385
0.3880000000000003;8149890507.0;7993806152.0;-4567218.0;24448.10730220481;26619.095649462724;-485.81268394619474;-332886.40517756355;-48250.0;-284636.40517756355
0.3920000000000003;8240534379.0;8097363281.0;-7096247.0;22660.966904957324;25756.93238025054;-805.0470025879185;-446785.0993118718;-113333.33333333333;-333451.7659785385
0.3960000000000003;8322299151.0;8196053467.0;-10797084.0;20441.19194426307;24651.177541362344;-1368.1160694760474;-554943.7401735631;-193666.66666666666;-361277.0735068965
0.4000000000000003;8393750928.0;8287399292.0;-14977575.0;17862.94339485088;22605.028226074526;-1457.731608283615;-644562.1373530475;-269416.6666666667;-375145.47068638087
0.4040000000000003;8453950241.0;8368890381.0;-18740807.0;15049.827590758967;20268.76505710623;-1642.6565846411722;-703278.9510229786;-398500.0;-304778.95102297864
0.4080000000000003;8502569886.0;8437148438.0;-19948086.0;12154.910575789616;16860.136187356504;-955.2100267994356;-723729.2537423377;-535916.6666666666;-187812.5870756711
0.4120000000000003;8539915089.0;8493579712.0;-20705272.0;9336.30043965611;14040.570244951614;-1012.3756131350765;-704652.5340333765;-705166.6666666666;514.132633290159
0.4160000000000003;8566901778.0;8536838379.0;-19746584.0;6746.6717842309;10602.482450986237;-397.247461005627;-647407.1638563025;-749250.0;101842.83614369747
0.4200000000000003;8584977275.0;8568643799.0;-18247729.0;4518.874201757275;7951.44341189174;-410.0273243976535;-556949.3956184062;-800833.3333333334;243883.93771492713
0.4240000000000003;8595935098.0;8590039673.0;-16129368.0;2739.4556605652315;5162.087384386763;22.908249133451136;-444854.63529801083;-726416.6666666666;281562.0313686558
0.4280000000000003;8601669511.0;8601597290.0;-12381321.0;1433.6031692219444;2912.9067352845223;381.1125167646537;-326463.12283582176;-715000.0;388536.87716417824
0.43200000000000033;8603964128.0;8606810303.0;-8665806.0;573.6540947535804;1197.947131098911;661.5550431086956;-214987.26861709103;-590500.0;375512.731382909
0.43600000000000033;8604332823.0;8606634521.0;-4088830.0;92.17367232160309;44.72753511215746;879.7510522288432;-120370.10560799431;-518666.6666666667;398296.5610586724
0.44000000000000034;8603894066.0;8606085205.0;-1988340.0;-109.68909086508994;-167.16059761697053;469.4553721160519;-50465.690796673254;-337166.6666666667;286700.97586999345
0.44400000000000034;8603321893.0;8604404297.0;-247596.0;-143.04338226083232;-372.3068714563921;376.6196586303396;-8338.572848935595;-201000.0;192661.42715106442
0.44800000000000034;8602911053.0;8603283691.0;386087.0;-102.7100069919514;-312.38451875709;207.2555031424085;10083.343817220228;-68083.33333333333;78166.67715055356
0.45200000000000035;8602712226.0;8601525879.0;1636474.0;-49.706545443400834;-408.8429893792719;352.3549775047434;13250.865387137643;-23000.0;36250.865387137645
0.45600000000000035;8602665502.0;8600844727.0;1989900.0;-11.681060797751716;-172.54743248455972;176.18184144680296;9506.37116141228;500.0;9006.37116141228
0.46000000000000035;8602691106.0;8600328369.0;2366496.0;6.401015654250092;-114.11742545717955;180.93615137002337;4520.519113000451;15750.0;-11229.480886999549
0.46400000000000036;8602731711.0;8600454712.0;2221215.0;10.151069736414673;9.85099667030573;80.92664273862809;937.5135205411453;28500.0;-27562.486479458854
0.46800000000000036;8602760359.0;8600339355.0;2367700.0;7.162027761659555;-10.758150237619876;120.35115407414612;-747.2604936887794;25166.666666666668;-25913.927160355448
0.47200000000000036;8602771994.0;8600460205.0;2282626.0;2.9088413917397116;14.907455022387207;92.18945130162457;-1063.296592479961;12916.666666666666;-13979.963259146627
0.47600000000000037;8602771794.0;8600432739.0;2332065.0;-0.04988897775489536;0.8067061816677451;104.9653085582439;-739.6825923736517;3250.0;-3989.682592373652
0.48000000000000037;8602760885.0;8600493164.0;2278682.0;-2.7273394938409727;13.968417688161136;85.7755803561477;-669.3626290215193;1000.0;-1669.3626290215193
0.4840000000000004;8602697568.0;8600498657.0;2268812.0;-15.829329379907152;1.9837675603181124;94.48102847825051;-3275.497471516545;-416.6666666666667;-2858.8308048498784
0.4880000000000004;8602408380.0;8600526123.0;2209721.0;-72.29694594920419;11.84100324998051;75.27061417160644;-14116.904142324258;-250.0;-13866.904142324258
0.4920000000000004;8601462644.0;8600575562.0;2007718.0;-236.4339161106921;6.607501042582094;41.583285386285205;-41034.24254037198;833.3333333333334;-41867.57587370531
