Zeit[sec];Sollposition[°];Istposition[°];Positionsschleppfehler[°];Sollgeschwindigkeit[°/s];Istgeschwindigkeit[°/s];Geschwindigkeitsdifferenz[°/s];Sollbeschleunigung[°/s*s];Istbeschleunigung[°/s*s];Beschleunigungsdifferenz[°/s*s]
0.0;0.0;-142822.0;142822.0;-0.0;2.394876674490508;3.7464693255094925;0.0;0.0;0.0
0.004;0.0;-137329.0;137329.0;-0.0;3.1306054017335807;2.7745415982664188;0.0;0.0;0.0
0.008;0.0;-148315.0;148315.0;-0.0;-3.8496693418730445;10.227214341873045;0.0;0.0;0.0
0.012;0.0;-142822.0;142822.0;-0.0;-0.27880842703906705;6.420154427039067;0.0;0.0;0.0
0.016;0.0;-142822.0;142822.0;-0.0;-0.9141398075087788;7.055485807508779;0.0;0.0;0.0
0.02;0.0;-137329.0;137329.0;-0.0;1.093859832413976;4.811287167586023;0.0;0.0;0.0
0.024;0.0;-137329.0;137329.0;-0.0;0.8110604749424786;5.094086525057521;0.0;0.0;0.0
0.028;0.0;-142822.0;142822.0;-0.0;-1.7246128130270122;7.865958813027013;0.0;0.0;0.0
0.032;0.0;-131836.0;131836.0;-0.0;3.082595080325034;2.586352919674966;0.0;0.0;0.0
0.036000000000000004;0.0;-137329.0;137329.0;-0.0;-1.1086710566100284;7.013818056610027;0.0;0.0;0.0
0.04000000000000001;0.0;-137329.0;137329.0;-0.0;-1.28506084885265;7.1902078488526495;0.0;0.0;0.0
0.04400000000000001;0.0;-131836.0;131836.0;-0.0;1.256883618985287;4.412064381014713;0.0;0.0;0.0
0.048000000000000015;5540.0;-131836.0;131836.0;1.3850662805901102;0.6702291252192627;4.998718874780738;346.26657014752755;0.0;346.26657014752755
0.05200000000000002;60752.0;-137329.0;139525.0;13.803117463509494;-2.0594256089859226;8.608157747579266;3104.512795729846;0.0;3104.512795729846
0.05600000000000002;332133.0;-137329.0;164727.0;67.84512131049382;-2.6925404145450433;16.076315334375124;13510.500961746082;0.0;13510.500961746082
0.060000000000000026;1226960.0;-126343.0;294370.0;223.70673295814436;-0.0905450471752693;47.905620611054026;38965.402911912635;83.33333333333333;38882.0695785793
0.06400000000000003;3484073.0;-98877.0;784205.0;564.2783839782214;9.43011066578253;153.6158669590318;85142.91275501926;83.33333333333333;85059.57942168594
0.06800000000000003;8165962.0;27466.0;2089161.0;1170.4719857539403;36.847471967009895;410.81127055779996;151548.4004439297;1333.3333333333333;150215.0671105964
0.07200000000000004;16532197.0;472412.0;4854732.0;2091.5586905787322;123.61373494821507;887.7688793413554;230271.67620619797;5416.666666666667;224855.0095395313
0.07600000000000004;29861169.0;2642212.0;8813398.0;3332.243040644185;630.6228373528922;1280.4698332489108;310171.0875163632;22500.0;287671.0875163632
0.08000000000000004;49316335.0;9376831.0;12391074.0;4863.79104982083;1786.4320165378163;1324.4578227378156;382887.00229416136;88916.66666666667;293970.3356274947
0.08400000000000005;75877136.0;22203369.0;15293370.0;6640.200125325177;3316.9527367213614;1272.870434260055;444102.2688760868;197750.0;246352.26887608677
0.08800000000000005;110264264.0;42302856.0;17430427.0;8596.781456754;5126.016681239884;1182.6272575103449;489145.3328572059;321833.3333333333;167311.99952387254
0.09200000000000005;152827192.0;70367432.0;18988033.0;10640.731482752013;7123.222618149569;1098.8082055770492;510987.50649950304;412583.3333333333;98404.17316616976
0.09600000000000006;203467309.0;107352905.0;19585408.0;12660.028596558865;9361.556689971238;876.3272156329767;504824.27845171286;475666.6666666667;29157.611785046185
0.10000000000000006;261646899.0;153489990.0;19165825.0;14544.896886476445;11622.339213964842;631.1662282106008;471217.072479395;525583.3333333334;-54366.260853938344
0.10400000000000006;326452148.0;208740234.0;17497654.0;16201.311559945;13918.656326273334;229.26039914461217;414103.66836713866;555083.3333333334;-140979.66496619472
0.10800000000000007;396691706.0;272406006.0;14594266.0;17559.888635492072;15976.539111285829;-158.39040039461543;339644.26888676826;565583.3333333334;-225939.0644465651
0.11200000000000007;471045325.0;342608643.0;11312674.0;18588.40391871065;17579.490716444667;-362.7851465394124;257128.82080464443;530000.0;-272871.17919535557
0.11600000000000008;548236873.0;417941895.0;7818299.0;19297.88610044987;18883.50280406433;-587.5974848794212;177370.54543480463;460583.3333333333;-283212.7878985287
0.12000000000000008;627166518.0;497114868.0;4100034.0;19732.410320622723;19802.268940436417;-762.2914170628646;108631.05504321356;369666.6666666667;-261035.61162345312
0.12400000000000008;706980786.0;578754272.0;324678.0;19953.565902045517;20385.316195929106;-905.343999780267;55288.895355698514;278916.6666666667;-223627.77131096818
0.12800000000000009;787101873.0;660316772.0;-1967622.0;20030.27074435885;20343.987739404925;-611.0464726565988;19176.210578333666;185916.66666666666;-166740.45608833298
0.1320000000000001;867214195.0;741406860.0;-3126977.0;20028.079657158854;20282.631912613997;-434.4095835893131;-547.7717999992819;77583.33333333333;-78131.1051333326
0.1360000000000001;947202264.0;822030029.0;-3634332.0;19997.016269276082;20136.79295748625;-264.11666340189913;-7765.846970693019;7000.0;-14765.84697069302
0.1400000000000001;1027066711.0;902592773.0;-4133967.0;19966.110866345934;20161.086347102697;-323.0705804723657;-7726.350732536957;-27833.333333333332;20106.982600796375
0.1440000000000001;1106852591.0;983029175.0;-4630586.0;19946.4689830938;20081.793518886625;-295.96394493705884;-4910.470813033498;-12416.666666666666;7506.195853633168
0.1480000000000001;1186605658.0;1062663574.0;-4430964.0;19938.265883080345;19916.9668105706;-148.99400968442205;-2050.775003363924;-19750.0;17699.224996636076
0.1520000000000001;1266355040.0;1141397095.0;-3391154.0;19937.344465709513;19674.228899650738;123.28314962084187;-230.35434270786936;-26083.333333333332;25852.978990625463
0.1560000000000001;1346112640.0;1219806519.0;-2048780.0;19939.399120321737;19645.351636354844;204.49944417425286;513.6636530560281;-45666.666666666664;46180.33031972269
0.16000000000000011;1425879365.0;1299375000.0;-1864600.0;19941.680355061726;19894.18093893033;-36.19423584114338;570.3086849971442;-20250.0;20820.308684997144
0.16400000000000012;1505651689.0;1378932495.0;-1660925.0;19943.0799870442;19875.32361096981;-6.451830709829665;349.90799561819586;9166.666666666666;-8816.75867104847
0.16800000000000012;1585425862.0;1458610840.0;-1570378.0;19943.54226424343;19925.795511120337;-51.099844456617575;115.56929980815767;23750.0;-23634.430700191842
0.17200000000000013;1665199595.0;1538129883.0;-1316397.0;19943.43236730575;19884.666669304268;1.9833314577044803;-27.474234419969434;13000.0;-13027.47423441997
0.17600000000000013;1744972117.0;1618110352.0;-1522878.0;19943.12958650891;19999.283225463143;-121.27099629384247;-75.69519921071333;833.3333333333334;-909.0285325440467
0.18000000000000013;1824743581.0;1697805176.0;-1444447.0;19942.865089052044;19893.48316710194;-12.281424723823875;-66.1243642161935;8500.0;-8566.124364216193
0.18400000000000014;1904514457.0;1777022095.0;-889256.0;19942.7180415338;19835.766086957807;69.0223965484729;-36.76187956079957;-6500.0;6463.2381204392
0.18800000000000014;1984285161.0;1856469727.0;-565651.0;19942.674908591613;19855.44791621801;63.03742758044973;-10.78323554702365;-6666.666666666667;6655.883431119643
0.19200000000000014;2064055925.0;1935977783.0;-302896.0;19942.689990285562;19914.602900573842;15.074373028899572;3.770423487367225;-11916.666666666666;11920.437090154033
0.19600000000000015;2143826818.0;2016524048.0;-1078432.0;19942.72241948595;20112.896011702887;-216.58744672319153;8.10730009652616;16583.333333333332;-16575.226033236806
0.20000000000000015;2223597818.0;2096548462.0;-1332031.0;19942.74914633987;19997.418882756483;-111.99345616897335;6.6817134802477085;19750.0;-19743.318286519752
0.20400000000000015;2303368875.0;2176138916.0;-1151551.0;19942.763203040886;19870.784498042027;22.431635209028173;3.5141752541676397;9166.666666666666;-9163.152491412498
0.20800000000000016;2383139946.0;2254801025.0;-42638.0;19942.766748565537;19680.833754482588;260.0873745169265;0.8863811626724782;-21916.666666666668;21917.55304782934
0.21200000000000016;2462911009.0;2334528809.0;641.0;19942.764737733414;19967.527019878355;-24.73493045584837;-0.502708030580834;-27000.0;26999.49729196942
0.21600000000000016;2542682058.0;2414547729.0;-247212.0;19942.761307487668;19974.82658842627;-42.6907738988084;-0.8575614365327056;5083.333333333333;-5084.190894769866
0.22000000000000017;2622453096.0;2494506226.0;-434651.0;19942.7586559538;20014.911544705163;-90.83814822838758;-0.6628834671573713;16916.666666666668;-16917.329550133825
0.22400000000000017;2702224129.0;2574283447.0;-440827.0;19942.757352261724;19922.3258041828;1.478911112222704;-0.32592301886325004;19916.666666666668;-19916.99258968553
0.22800000000000017;2781995161.0;2653967285.0;-353629.0;19942.7570954923;19961.787726381976;-34.23561878537657;-0.0641923561488511;-10500.0;10499.935807643851
0.23200000000000018;2861766195.0;2733892822.0;-508134.0;19942.75735632802;19943.452925190224;-22.545429094752762;0.06520893020933727;1916.6666666666667;-1916.6014577364574
0.23600000000000018;2941537229.0;2813208618.0;-52897.0;19942.757721543057;19859.70185545632;80.78077395776563;0.09130375929089496;-10083.333333333334;10083.424637092625
0.24000000000000019;3021308265.0;2893095703.0;-168948.0;19942.757985699478;19944.291795415447;-8.79905981371121;0.06603910514968447;1916.6666666666667;-1916.600627561517
0.2440000000000002;3101079301.0;2972351074.0;346716.0;19942.758106425317;19844.01909152403;113.64752061297258;0.030181459806044586;-9333.333333333334;9333.36351479314
0.2480000000000002;3180850337.0;3052836914.0;-368088.0;19942.758122865005;20124.949665351283;-198.01941733371132;0.004109921974304598;6416.666666666667;-6416.662556744693
0.25200000000000017;3260621374.0;3132932739.0;-692877.0;19942.758091346124;20004.288077104447;-91.32367586844339;-0.007879720214987174;16250.0;-16250.007879720215
0.25600000000000017;3340392410.0;3212880249.0;-869351.0;19942.75805303673;19987.70624431138;-82.33022703943425;-0.009577348464517854;9083.333333333334;-9083.342910681798
0.2600000000000002;3420163445.0;3291729126.0;52809.0;19942.758026986427;19697.860813982086;247.16804935963592;-0.006512575964734424;-7000.0;6999.993487424035
0.2640000000000002;3499934481.0;3371039429.0;513542.0;19942.75801599343;19901.440077235337;63.4002716973373;-0.002748249244177714;-34500.0;34499.997251750756
0.2680000000000002;3579705517.0;3451239624.0;84382.0;19942.758015290485;20003.4535264105;-57.067077629995765;-0.00017573620425537229;1416.6666666666667;-1416.666842402871
0.2720000000000002;3659476553.0;3531275024.0;-179982.0;19942.75801896017;20056.592076499735;-121.57328672058429;0.0009174209480988793;9833.333333333334;-9833.332415912386
0.2760000000000002;3739247589.0;3611590576.0;-724498.0;19942.758022937414;20013.04967888138;-101.44507613180394;0.0009943114491761662;33750.0;-33749.99900568855
0.2800000000000002;3819018625.0;3690851440.0;-214326.0;19942.758025483035;19849.221678486687;84.32032402890763;0.0006364052751450799;-8083.333333333333;8083.333969738608
0.2840000000000002;3898789661.0;3770755005.0;-346855.0;19942.758026464566;19947.70434568136;-19.861086758002784;0.0002453825800330378;-6916.666666666667;6916.666912049247
0.2880000000000002;3978560697.0;3849834595.0;344591.0;19942.758026439446;19784.099098865467;173.47633999183017;-6.2800609157420695e-06;-19250.0;19249.99999371994
0.2920000000000002;4058331733.0;3930056763.0;-106541.0;19942.758026023177;20050.083811227138;-111.90704777828068;-0.00010406711226096377;-1083.3333333333333;1083.333229266221
0.2960000000000002;4138102768.0;4009361572.0;359686.0;19942.75802561387;19803.238290112095;154.98623416245755;-0.00010232633940177038;6500.0;-6500.000102326339
0.3000000000000002;4217873804.0;4089534302.0;-42008.0;19942.758025367;20095.0330493351;-154.08136747179014;-6.171831046231091e-05;-833.3333333333334;833.3332716150229
0.3040000000000002;4297644840.0;4169750977.0;-487648.0;19942.75802528205;19999.407266083745;-77.61810456534295;-2.1236701286397874e-05;19333.333333333332;-19333.333354570033
0.3080000000000002;4377415876.0;4249698486.0;-664121.0;19942.75802529337;20027.918848596386;-113.71802626161298;2.8294380172155797e-06;-1416.6666666666667;1416.6666694961048
0.3120000000000002;4457186912.0;4329135132.0;-329731.0;19942.75802533989;19780.024325981125;148.55526630589884;1.1629708751570433e-05;11000.0;-10999.999988370291
0.3160000000000002;4536957948.0;4407830200.0;746237.0;19942.758025381798;19776.110834660092;198.73538165164064;1.0477378964424133e-05;-38416.666666666664;38416.66667714404
0.32000000000000023;4616728984.0;4488151245.0;196228.0;19942.758025405303;20025.406239731543;-74.21041037531177;5.876245268154889e-06;-2583.3333333333335;2583.3333392095788
0.32400000000000023;4696500020.0;4567769165.0;349344.0;19942.75802541227;19963.236946762107;-5.4571293712251645;1.7416823538951576e-06;-2583.3333333333335;2583.333335075016
0.32800000000000024;4776271056.0;4648716431.0;-826886.0;19942.75802541028;20184.157911321334;-276.9559839133908;-4.974936018697917e-07;36416.666666666664;-36416.66666716416
0.33200000000000024;4856042091.0;4727796021.0;-135440.0;19942.758025405303;19773.397103838928;163.53700157250933;-1.2441887520253658e-06;6833.333333333333;-6833.333334577522
0.33600000000000024;4935813127.0;4807633667.0;-202050.0;19942.758025400828;19975.491350102064;-41.42147469373958;-1.1186784831807017e-06;-12416.666666666666;12416.666665547988
0.34000000000000025;5015584163.0;4886625366.0;577286.0;19942.75802539909;19719.052113046684;248.52921035683903;-4.347384674474597e-07;-16166.666666666666;16166.666666231928
0.34400000000000025;5095355199.0;4966814575.0;159113.0;19942.75802539859;20114.974838167807;-165.37495376765946;-1.2460077414289117e-07;-17500.0;17499.9999998754
0.34800000000000025;5175126235.0;5046685181.0;59543.0;19942.75802539834;19868.537546042455;76.7808283564118;-6.275513442233205e-08;26416.666666666668;-26416.666666729423
0.35200000000000026;5254897271.0;5126303101.0;212659.0;19942.75802539909;20017.509791722845;-65.60742932436915;1.8735590856522322e-07;-8416.666666666666;8416.666666854022
0.35600000000000026;5334668307.0;5206832886.0;-546090.0;19942.758025399333;20040.20017626644;-120.92402086781658;6.093614501878619e-08;26583.333333333332;-26583.333333272396
0.36000000000000026;5414439343.0;5286170654.0;-112822.0;19942.75802540033;19919.267058494046;18.639620905116317;2.4920154828578234e-07;-18583.333333333332;18583.333333582534
0.36400000000000027;5494210379.0;5366524658.0;-695790.0;19942.758025400082;19990.750036065256;-77.91098066554696;-6.184563972055912e-08;18666.666666666668;-18666.666666728514
0.36800000000000027;5573981414.0;5444791260.0;808644.0;19942.758025399584;19642.394523749925;335.13519365031607;-1.2460077414289117e-07;-29333.333333333332;29333.33333320873
0.3720000000000003;5653752450.0;5525354004.0;16936.0;19942.75802539983;20107.37638451706;-163.8901111171799;6.184563972055912e-08;-4666.666666666667;4666.666666728513
0.3760000000000003;5733523486.0;5604488525.0;653450.0;19942.758025399333;19795.17896386022;175.67741153949464;-1.2460077414289117e-07;-3083.3333333333335;3083.3333332087327
0.3800000000000003;5813294522.0;5685639038.0;-726027.0;19942.758025400082;20305.134857675752;-393.5959932760743;1.8735590856522322e-07;16916.666666666668;-16916.666666479312
0.3840000000000003;5893065558.0;5765070190.0;-386143.0;19942.75802539909;19784.871333493815;141.28254290580662;-2.482920535840094e-07;27750.0;-27750.000000248292
0.3880000000000003;5972836594.0;5844583740.0;-128657.0;19942.758025399584;19980.70582461294;-43.48005021330755;1.2369127944111824e-07;-22166.666666666668;22166.66666679036
0.3920000000000003;6052607630.0;5923861084.0;365035.0;19942.758025399584;19714.214043055355;244.2404873439591;0.0;500.0;-500.0
0.3960000000000003;6132378666.0;6003402100.0;595055.0;19942.75802539983;20039.129295997725;-70.78390559815307;6.184563972055912e-08;-41250.0;41250.000000061846
0.4000000000000003;6212149702.0;6084310913.0;-542722.0;19942.758025399584;20067.971798522947;-148.55081912329842;-6.184563972055912e-08;41666.666666666664;-41666.66666672851
0.4040000000000003;6291920737.0;6163269653.0;269574.0;19942.758025399584;19890.93308529574;63.4166221039377;0.0;-11250.0;11250.0
0.4080000000000003;6371691773.0;6244376221.0;-1065958.0;19942.758025399584;20171.829165993982;-274.9073345943798;0.0;33916.666666666664;-33916.666666666664
0.4120000000000003;6451462809.0;6322868042.0;213256.0;19942.75802539983;19709.66395818826;242.26407521129295;6.184563972055912e-08;-26583.333333333332;26583.333333395178
0.4160000000000003;6531233845.0;6403908691.0;-1056357.0;19942.758025399333;20231.1442491351;-333.80957473541275;-1.2460077414289117e-07;6666.666666666667;-6666.666666791268
0.4200000000000003;6611004881.0;6482043457.0;579913.0;19942.758025399584;19538.908114963844;428.7861694357671;6.275513442233205e-08;-11250.0;11250.000000062755
0.4240000000000003;6690775917.0;6562578735.0;-184329.0;19942.75802539983;20204.616530566534;-269.784652167109;6.184563972055912e-08;-16750.0;16750.000000061846
0.4280000000000003;6770546953.0;6641768188.0;397254.0;19942.758025399584;19699.344684114913;260.49526328475986;-6.184563972055912e-08;16916.666666666668;-16916.666666728514
0.43200000000000033;6850317989.0;6722490234.0;-553756.0;19942.75802539983;20342.12516727047;-423.1786498707079;6.184563972055912e-08;-14500.0;14500.000000061846
0.43600000000000033;6930089025.0;6802921143.0;-1213629.0;19942.758025399584;19908.741704478554;-18.169726078864187;-6.184563972055912e-08;56333.333333333336;-56333.33333339518
0.44000000000000034;7009860060.0;6881555786.0;-77236.0;19942.75802539909;19849.149748812946;90.2871285867659;-1.2369127944111824e-07;-38583.333333333336;38583.333333209644
0.44400000000000034;7089631096.0;6961547241.0;-297655.0;19942.75802539983;19797.05198370308;132.90687669626277;1.8553691916167736e-07;18666.666666666668;-18666.66666648113
0.44800000000000034;7169402132.0;7039627075.0;1393546.0;19942.75802540033;19730.201926179394;272.47857722000117;1.2460077414289117e-07;-68000.0;68000.0000001246
0.45200000000000035;7249173168.0;7121678467.0;-886810.0;19942.758025399584;20335.46445613591;-430.83926073584735;-1.864464138634503e-07;40500.0;-40500.00000018645
0.45600000000000035;7328944204.0;7199983521.0;579172.0;19942.75802539909;19668.753886461604;298.90853493848044;-1.2369127944111824e-07;-416.6666666666667;416.6666665429754
0.46000000000000035;7408715240.0;7281611938.0;-1278209.0;19942.75802539983;20360.214116937874;-472.4190785384999;1.8553691916167736e-07;32416.666666666668;-32416.66666648113
0.46400000000000036;7488486276.0;7359581909.0;522856.0;19942.758025398838;19463.130601722634;502.11023167677195;-2.482920535840094e-07;-8333.333333333334;8333.333333085042
0.46800000000000036;7568256567.0;7440589600.0;-713799.0;19942.571775956596;20364.376325128087;-452.3116567286488;-46.56236056052876;-27083.333333333332;27036.770972772803
0.47200000000000036;7648021296.0;7519460449.0;186093.0;19941.181298537278;19543.743095898077;406.9430835070598;-347.6193548294759;23250.0;-23597.619354829476
0.47600000000000037;7727765858.0;7599380493.0;34139.0;19936.139689849068;20191.700920576015;-248.21137888462545;-1260.4021720526362;-40750.0;39489.597827947364
0.48000000000000037;7807451650.0;7679437866.0;-266469.0;19921.447062680334;19757.87558752969;169.85677226648477;-3673.156792183363;51000.0;-54673.15679218336
0.4840000000000004;7886971570.0;7758495483.0;397293.0;19879.97907314047;20056.36129051823;-108.93385809341999;-10366.997384966453;-54833.333333333336;44466.33594836688
0.4880000000000004;7966076703.0;7840387573.0;-1874426.0;19776.28221009866;20182.218005350485;-357.7265809730561;-25924.21576045217;69916.66666666667;-95840.88242711884
0.4920000000000004;8044315694.0;7917709351.0;160231.0;19559.746910419268;19543.844457190928;302.15333951815046;-54133.82491984794;-48333.333333333336;-5800.491586514603
0.4960000000000004;8121003232.0;7998497314.0;-1863580.0;19171.883394724984;20009.27419774009;-398.3711917934015;-96965.87892357093;24416.666666666668;-121382.5455902376
