Zeit[sec];Sollposition[°];Istposition[°];Positionsschleppfehler[°];Sollgeschwindigkeit[°/s];Istgeschwindigkeit[°/s];Geschwindigkeitsdifferenz[°/s];Sollbeschleunigung[°/s*s];Istbeschleunigung[°/s*s];Beschleunigungsdifferenz[°/s*s]
0.0;0.0;5493.0;-5493.0;0.0;-0.04003752409198805;-0.28954247590801196;0.0;0.0;0.0
0.004;0.0;5493.0;-5493.0;0.0;-0.004462188603751404;-0.3251178113962486;0.0;0.0;0.0
0.008;0.0;5493.0;-5493.0;0.0;-0.5533518933746349;0.22377189337463482;0.0;0.0;0.0
0.012;0.0;5493.0;-5493.0;0.0;-0.31448177727295223;-0.015098222727047805;0.0;0.0;0.0
0.016;0.0;5493.0;-5493.0;0.0;-0.5141638546996321;0.18458385469963207;0.0;0.0;0.0
0.02;0.0;5493.0;-5493.0;0.0;-0.7397165652545071;0.4101365652545071;0.0;0.0;0.0
0.024;0.0;5493.0;-5493.0;0.0;-1.0497931799855387;0.7202131799855387;0.0;0.0;0.0
0.028;0.0;10986.0;-10986.0;0.0;2.59669904788565;-3.25585904788565;0.0;0.0;0.0
0.032;0.0;5493.0;-5493.0;0.0;-0.29849087841221306;-0.031089121587786983;0.0;0.0;0.0
0.036000000000000004;0.0;5493.0;-5493.0;0.0;-0.5204213848763238;0.1908413848763238;0.0;0.0;0.0
0.04000000000000001;0.0;5493.0;-5493.0;0.0;-1.2902638623471057;0.9606838623471057;0.0;0.0;0.0
0.04400000000000001;0.0;5493.0;-5493.0;0.0;-1.0164535340907523;0.6868735340907524;0.0;0.0;0.0
0.048000000000000015;-1780.0;10986.0;-10986.0;-0.44508650813953693;2.6665532941442565;-3.3257132941442564;-111.27162703488423;0.0;-111.27162703488423
0.05200000000000002;-19522.0;5493.0;-6199.0;-4.435586541501675;-0.528355894913862;-0.02005395108677477;-997.6250083405346;0.0;-997.6250083405346
0.05600000000000002;-106729.0;5493.0;-14297.0;-21.80180729367376;-0.7432537944877469;-2.1392156965582267;-4341.555188043021;0.0;-4341.555188043021
0.060000000000000026;-394979.0;10986.0;-64980.0;-72.06240693294306;2.4522777304101133;-17.648717616815787;-12565.149909817326;0.0;-12565.149909817326
0.06400000000000003;-1126220.0;5493.0;-225998.0;-182.8103468808576;-0.2421038054100836;-54.94537072364483;-27686.984986978634;0.0;-27686.984986978634
0.06800000000000003;-2655602.0;10986.0;-694202.0;-382.3452754494895;2.6374827679783652;-159.96734175269648;-49883.73214215798;0.0;-49883.73214215798
0.07200000000000004;-5417908.0;-60425.0;-1667886.0;-690.5764445822382;-19.472066611257507;-341.87500800317144;-77057.79228318717;-500.0;-76557.79228318717
0.07600000000000004;-9884201.0;-406494.0;-3335358.0;-1116.5732983433213;-99.43939492577353;-604.0670530007513;-106499.21344027077;-3583.3333333333335;-102915.88010693745
0.08000000000000004;-16539824.0;-2191772.0;-4980766.0;-1663.9057616613586;-509.7967442919849;-646.7207145990456;-136833.11582950933;-18916.666666666668;-117916.44916284266
0.08400000000000005;-25878836.0;-6904907.0;-5591975.0;-2334.7527678874703;-1217.2927735649212;-449.31171909925615;-167711.75155652792;-67500.0;-100211.75155652793
0.08800000000000005;-38388485.0;-14699707.0;-5503892.0;-3127.4120831648133;-1983.1478685493853;-273.7647429439003;-198164.82881933576;-127583.33333333333;-70581.49548600243
0.09200000000000005;-54518050.0;-25356445.0;-5427551.0;-4032.391154419082;-2699.2818869028315;-271.4702300131976;-226244.76781356713;-174416.66666666666;-51828.10114690048
0.09600000000000006;-74650063.0;-39182739.0;-5527568.0;-5033.002981763094;-3504.618758966733;-308.6129774769556;-250152.956836003;-187083.33333333334;-63069.62350266966
0.10000000000000006;-99082824.0;-56892700.0;-5512869.0;-6108.190062826471;-4489.0621734651195;-265.5254641904312;-268796.7702658443;-197166.66666666666;-71630.10359917766
0.10400000000000006;-128020696.0;-78991699.0;-5227611.0;-7234.467541743252;-5576.404264291604;-190.6872953891325;-281569.36972919514;-222416.66666666666;-59152.703062528504
0.10800000000000007;-161573483.0;-105100708.0;-5312369.0;-8388.196441395454;-6572.648820959222;-294.53487986903747;-288432.2249130505;-249166.66666666666;-39265.55824638385
0.11200000000000007;-199761007.0;-135845947.0;-5308347.0;-9546.880447527325;-7761.582651128818;-242.221910209445;-289671.00153296767;-263166.6666666667;-26504.334866301007
0.11600000000000008;-242515154.0;-171903076.0;-4614565.0;-10688.536192909165;-9054.078587729498;-63.631727388245054;-285413.9363454601;-282500.0;-2913.9363454601153
0.12000000000000008;-289682252.0;-212525024.0;-3963579.0;-11791.773995555262;-10208.231081701215;-22.323606400557765;-275809.4506615244;-296500.0;20690.54933847565
0.12400000000000008;-341025347.0;-257398682.0;-3566977.0;-12835.773048971976;-11247.139785000794;-86.14218943378364;-260999.7633541784;-301583.3333333333;40583.5699791549
0.12800000000000009;-396222141.0;-306342773.0;-3419844.0;-13799.197881246242;-12305.281066790016;-99.14859695988707;-240856.2080685665;-278750.0;37893.7919314335
0.1320000000000001;-454867668.0;-359752808.0;-2856367.0;-14661.381090631474;-13404.76453428893;21.743754786826685;-215545.80234630793;-267250.0;51704.19765369206
0.1360000000000001;-516491271.0;-417194824.0;-1955933.0;-15405.90014528617;-14381.306987018672;128.55602224043832;-186129.76366367412;-264833.3333333333;78703.5696696592
0.1400000000000001;-580582375.0;-477229614.0;-1727224.0;-16022.775029454599;-15027.055695716816;-28.097152232523513;-154218.72104210706;-249333.33333333334;95114.61229122628
0.1440000000000001;-646617441.0;-540175781.0;-1365535.0;-16508.765770392507;-15794.829290122982;66.77820826996322;-121497.6852344771;-211666.66666666666;90168.98143218955
0.1480000000000001;-714090720.0;-606159668.0;-229045.0;-16868.31906497604;-16482.973741750775;257.3827783940487;-89888.32364588324;-189083.33333333334;99195.0096874501
0.1520000000000001;-782547632.0;-672918091.0;-64527.0;-17114.22704119865;-16680.331629401942;27.98457772497204;-61476.99405565254;-159333.33333333334;97856.3392776808
0.1560000000000001;-851608474.0;-740950928.0;113463.0;-17265.20979122691;-17044.188978903167;87.28578125243803;-37745.68750706476;-121916.66666666667;84170.9791596019
0.16000000000000011;-920980082.0;-810368042.0;839980.0;-17342.901079103587;-17317.01129818157;194.76162275035313;-19422.82196916949;-88500.0;69077.17803083052
0.16400000000000012;-990462134.0;-879428101.0;719522.0;-17370.51232590873;-17270.162233662726;18.20504527004232;-6902.811701285827;-56750.0;49847.18829871417
0.16800000000000012;-1059943376.0;-949207764.0;1085608.0;-17370.30947847489;-17455.613961142677;167.35715649648046;50.7118584600903;-43333.333333333336;43384.045191793426
0.17200000000000013;-1129381823.0;-1018729248.0;1126009.0;-17359.61095596639;-17348.00600262515;45.29642720370248;2674.630627125225;-18833.333333333332;21507.963960458557
0.17600000000000013;-1198776570.0;-1087888184.0;820665.0;-17348.6860058602;-17315.122808606608;-1.706161417245312;2731.2375265473747;750.0;1981.2375265473747
0.18000000000000013;-1268142976.0;-1157514038.0;1025148.0;-17341.600605930944;-17390.04770228495;96.21451167799387;1771.34998231395;-2000.0;3771.34998231395
0.18400000000000014;-1337497151.0;-1226502686.0;630030.0;-17338.543042025754;-17248.92863705673;-59.21033182042083;764.3909762973635;10166.666666666666;-9402.275690369303
0.18800000000000014;-1406849587.0;-1295892334.0;657955.0;-17338.10805091808;-17364.73743983327;63.78489420108963;108.7477769187899;2333.3333333333335;-2224.5855564145436
0.19200000000000014;-1476204726.0;-1365276489.0;688553.0;-17338.784087756147;-17307.791588026343;10.716277764549886;-169.00920951684384;-1750.0;1580.9907904831562
0.19600000000000015;-1545563058.0;-1434226685.0;285231.0;-17339.582128144437;-17264.864285446125;-56.400492291195405;-199.51009707256162;5916.666666666667;-6116.176763739229
0.20000000000000015;-1614923414.0;-1503786621.0;488778.0;-17340.088038463622;-17386.857990228953;77.08813308158642;-126.47757979630114;-3750.0;3623.522420203699
0.20400000000000015;-1684284480.0;-1572901611.0;244652.0;-17340.265885084704;-17252.97239480461;-72.12652285861259;-44.46165527042467;1916.6666666666667;-1961.1283219370914
0.20800000000000016;-1753645432.0;-1642214355.0;196770.0;-17340.23712523149;-17358.740708918456;30.39132136671833;7.189963303062541;-333.3333333333333;340.52329663639586
0.21200000000000016;-1823005974.0;-1711779785.0;401184.0;-17340.134526256064;-17363.845550200862;47.663150018644956;25.649743856774876;-6250.0;6275.649743856775
0.21600000000000016;-1892366143.0;-1780779419.0;40028.0;-17340.041495537236;-17269.629504373;-68.16543048261519;23.257679707057832;4750.0;-4726.742320292942
0.22000000000000017;-1961726099.0;-1850262451.0;162663.0;-17339.988235616784;-17373.32151289498;42.98305069948037;13.314980113136698;-3583.3333333333335;3596.64831344647
0.22400000000000017;-2031085989.0;-1919569702.0;109827.0;-17339.97152221817;-17307.370116488502;-26.061187424318632;4.178349653557234;1916.6666666666667;-1912.4883170131095
0.22800000000000017;-2100445895.0;-1988778076.0;-41730.0;-17339.975891124253;-17330.601472915845;-11.884248169382772;-1.0922265209956095;1666.6666666666667;-1667.7588931876624
0.23200000000000018;-2169805847.0;-2058458862.0;279160.0;-17339.986971744926;-17405.815396373637;82.59164402241731;-2.770155168036581;-6166.666666666667;6163.89651149863
0.23600000000000018;-2239165836.0;-2127485962.0;-53664.0;-17339.996418450344;-17261.3977218241;-81.80237699404461;-2.361676354666997;2416.6666666666665;-2419.0283430213335
0.24000000000000019;-2308525845.0;-2196908569.0;8976.0;-17340.001539525794;-17368.627496886464;29.17540459596421;-1.2802688625015435;-333.3333333333333;332.05306447083177
0.2440000000000002;-2377885860.0;-2266364136.0;104546.0;-17340.002946870063;-17340.61957490378;6.893941378832096;-0.35183606723876437;-250.0;249.64816393276124
0.2480000000000002;-2447245873.0;-2335468140.0;-151461.0;-17340.002330802447;-17298.84477180303;-50.24495570649742;0.15401690416183555;3416.6666666666665;-3416.5126497625047
0.25200000000000017;-2516605881.0;-2405165405.0;185790.0;-17340.001152414192;-17420.89585264509;92.04055828239143;0.2945970636574202;-5333.333333333333;5333.62793039699
0.25600000000000017;-2585965885.0;-2474313354.0;-26272.0;-17340.000211839095;-17275.593528300673;-65.98465889901854;0.23514377426181454;666.6666666666666;-666.4315228924048
0.2600000000000002;-2655325887.0;-2543620605.0;-79028.0;-17339.999734083554;-17341.726724883647;-3.015741511819215;0.11943888512178091;1500.0;-1499.8805611148782
0.2640000000000002;-2724685889.0;-2613125610.0;65974.0;-17339.99962758327;-17351.09677350273;15.055185575078212;0.02662507085915422;-1833.3333333333333;1833.3599584041924
0.2680000000000002;-2794045891.0;-2682273560.0;-146078.0;-17339.99971066668;-17311.899094586683;-36.865280070538574;-0.02077085264318157;5166.666666666667;-5166.68743751931
0.2720000000000002;-2863405894.0;-2751926880.0;147240.0;-17339.99983684299;-17423.492641910216;92.32738076166424;-0.03154407750116661;-5250.0;5249.968455922499
0.2760000000000002;-2932765897.0;-2821146240.0;6598.0;-17339.99993090465;-17291.64977702561;-47.954103181193204;-0.023515414795838296;-1000.0;999.9764845852042
0.2800000000000002;-3002125900.0;-2890382080.0;-117565.0;-17339.999975433904;-17343.421928543088;-3.631844854589872;-0.011132313375128433;3500.0;-3500.011132313375
0.2840000000000002;-3071485903.0;-2959991455.0;131807.0;-17339.99998284001;-17384.690101274424;52.59857326576093;-0.001851526576501783;-3083.3333333333335;3083.331481806757
0.2880000000000002;-3140845906.0;-3029035034.0;-184617.0;-17339.999972567846;-17267.426989422667;-83.65000868668358;0.002568041054473724;4750.0;-4749.9974319589455
0.2920000000000002;-3210205909.0;-3098655396.0;75742.0;-17339.99995926563;-17414.61226266722;79.15680394338051;0.0033255537346121855;-3750.0;3750.0033255537346
0.2960000000000002;-3279565912.0;-3168012085.0;72428.0;-17339.999949952933;-17313.776242771513;-21.87804458242681;0.002328174559806939;-1916.6666666666667;1916.6689948412265
0.3000000000000002;-3348925915.0;-3237132568.0;-167092.0;-17339.999945866253;-17308.335020768023;-41.69045488320262;0.0010216699593001977;4500.0;-4499.998978330041
0.3040000000000002;-3418285919.0;-3306763916.0;104253.0;-17339.99994545733;-17390.88700353437;57.14223514721016;0.00010223084245808423;-3750.0;3750.0001022308425
0.3080000000000002;-3487645922.0;-3375867920.0;-151747.0;-17339.999946672753;-17274.153143292155;-74.95162243590312;-0.0003038558133994229;4916.666666666667;-4916.66697052248
0.3120000000000002;-3557005925.0;-3445389404.0;9734.0;-17339.9999480598;-17397.212688648582;57.7967827070097;-0.0003467621354502626;-2500.0;2499.9996532378645
0.3160000000000002;-3626365928.0;-3514866943.0;127270.0;-17339.999948973516;-17336.702945584482;4.339198368932557;-0.00022842868929728866;-4000.0;3999.9997715713107
0.32000000000000023;-3695725931.0;-3583916016.0;-183660.0;-17339.999949341895;-17286.916002517683;-64.10354589629424;-9.209452400682494e-05;4833.333333333333;-4833.333425427857
0.32400000000000023;-3765085934.0;-3653563843.0;104164.0;-17339.99994934903;-17403.290376392724;69.54026727849487;-1.7835191101767123e-06;-3083.3333333333335;3083.3333315498144
0.32800000000000024;-3834445937.0;-3722783203.0;-36479.0;-17339.99994920953;-17285.11205131581;-57.07663802673051;3.487457433948293e-05;2500.0;-2499.9999651254257
0.33200000000000024;-3903805940.0;-3792068481.0;-111204.0;-17339.999949065976;-17347.32658744339;0.6543981497488858;3.588866093195975e-05;583.3333333333334;-583.3332974446724
0.33600000000000024;-3973165943.0;-3861677856.0;138168.0;-17339.99994897725;-17372.135744891257;40.42587573785204;2.2181666281539947e-05;-3916.6666666666665;3916.666688848333
0.34000000000000025;-4042525946.0;-3930743408.0;-156283.0;-17339.999948944645;-17286.297886053875;-63.07904297776986;8.150891517288983e-06;5000.0;-4999.9999918491085
0.34400000000000025;-4111885949.0;-4000292358.0;32664.0;-17339.999948947563;-17400.632170413588;62.59206144879863;-7.294147508218884e-07;-2916.6666666666665;2916.6666659372518
0.34800000000000025;-4181245953.0;-4069610596.0;-9101.0;-17339.9999489633;-17309.770589844185;-30.77541910177024;-3.9344740798696876e-06;166.66666666666666;-166.66667060114074
0.35200000000000026;-4250605956.0;-4138807983.0;-171718.0;-17339.999948977573;-17326.86654957855;-23.436479375246563;-3.5679477150551975e-06;2916.6666666666665;-2916.6666702346142
0.35600000000000026;-4319965959.0;-4208521729.0;182025.0;-17339.99994898617;-17404.951550311405;75.8731013425604;-2.1491359802894294e-06;-5750.0;5749.999997850864
0.36000000000000026;-4389325962.0;-4277510376.0;-189331.0;-17339.999948989578;-17257.33217271836;-94.02763626251908;-8.521965355612338e-07;4166.666666666667;-4166.6666675188635
0.36400000000000027;-4458685965.0;-4347075806.0;16096.0;-17339.99994898844;-17407.405042841885;68.37085385443424;2.8467184165492654e-07;-1083.3333333333333;1083.333333618005
0.36800000000000027;-4528045968.0;-4416503906.0;84193.0;-17339.999948986817;-17324.147264017047;-10.801104972048051;4.05634636990726e-07;-2250.0;2250.0000004056346
0.3720000000000003;-4597405971.0;-4485509033.0;-270683.0;-17339.99994898487;-17282.84766579828;-73.39326318954045;4.865796654485166e-07;5666.666666666667;-5666.666666180087
0.3760000000000003;-4666765974.0;-4555305176.0;165457.0;-17339.99994898471;-17443.226452990915;113.15392400485143;4.001776687800884e-08;-5083.333333333333;5083.333333373351
0.3800000000000003;-4736125977.0;-4624365234.0;-134488.0;-17339.999948984223;-17252.75820293883;-95.31102604600528;1.2187229003757238e-07;2666.6666666666665;-2666.666666544794
0.3840000000000003;-4805485980.0;-4693716431.0;-143294.0;-17339.999948984063;-17358.102556297094;9.504967312550434;4.001776687800884e-08;83.33333333333333;-83.33333329331556
0.3880000000000003;-4874845983.0;-4763347778.0;128050.0;-17339.99994898471;-17378.206953209658;45.89000422554818;-1.6189005691558123e-07;-3583.3333333333335;3583.3333331714434
0.3920000000000003;-4944205987.0;-4832380371.0;-199360.0;-17339.999948985034;-17281.877228945974;-70.08432003836788;-8.094502845779061e-08;5250.0;-5250.000000080945
0.3960000000000003;-5013565990.0;-4902028198.0;88463.0;-17339.999948984547;-17424.07539091989;89.38322193506247;1.2187229003757238e-07;-4666.666666666667;4666.666666788539
0.4000000000000003;-5082925993.0;-4971247559.0;-52179.0;-17339.999948984547;-17276.148924228484;-66.98176475636501;0.0;500.0;-500.0
0.4040000000000003;-5152285996.0;-5040439453.0;-220288.0;-17339.999948985034;-17329.65583560224;-23.561393382282404;-1.2187229003757238e-07;4750.0;-4750.000000121872
0.4080000000000003;-5221645999.0;-5110224609.0;204865.0;-17339.99994898471;-17419.695118350486;91.98706936574672;8.094502845779061e-08;-6250.0;6250.000000080945
0.4120000000000003;-5291006002.0;-5179213257.0;-166490.0;-17339.999948984547;-17258.21375917879;-91.7755898060932;4.092726157978177e-08;4250.0;-4249.999999959073
0.4160000000000003;-5360366005.0;-5248712769.0;-26981.0;-17339.999948984547;-17394.059213491968;52.440404507324274;0.0;-2166.6666666666665;2166.6666666666665
0.4200000000000003;-5429726008.0;-5318206787.0;107034.0;-17339.99994898471;-17326.13097091381;-7.446938070759643;-4.092726157978177e-08;-1750.0;1749.9999999590727
0.4240000000000003;-5499086011.0;-5387206421.0;-253335.0;-17339.999948984547;-17289.651261336177;-65.5487876483894;4.092726157978177e-08;6416.666666666667;-6416.66666662574
0.4280000000000003;-5568446014.0;-5457008057.0;188298.0;-17339.999948985034;-17435.254268485725;106.55219950111496;-1.2187229003757238e-07;-6666.666666666667;6666.666666544795
0.43200000000000033;-5637806017.0;-5526106567.0;-73195.0;-17339.999948984547;-17255.80595042621;-88.58569855854148;1.2187229003757238e-07;3000.0;-2999.9999998781277
0.43600000000000033;-5707166021.0;-5595419312.0;-120453.0;-17339.999948985034;-17359.861665163415;12.634536178637063;-1.2187229003757238e-07;833.3333333333334;-833.3333334552057
0.44000000000000034;-5776526024.0;-5665111084.0;211315.0;-17339.99994898471;-17375.720839337155;48.399790352439595;8.094502845779061e-08;-4500.0;4500.000000080945
0.44400000000000034;-5845886027.0;-5733984375.0;-275397.0;-17339.99994898487;-17250.450935605193;-106.07283337975241;-4.001776687800884e-08;7583.333333333333;-7583.333333373351
0.44800000000000034;-5915246030.0;-5803736572.0;116797.0;-17339.99994898471;-17443.24411846546;110.25198948075922;4.001776687800884e-08;-5083.333333333333;5083.333333373351
0.45200000000000035;-5984606033.0;-5873076782.0;97004.0;-17339.99994898471;-17299.601310558297;-34.578398426481726;0.0;-666.6666666666666;666.6666666666666
0.45600000000000035;-6053966036.0;-5942153320.0;-186461.0;-17339.999948984387;-17322.496275965324;-28.691333019422018;8.094502845779061e-08;3833.3333333333335;-3833.3333332523885
0.46000000000000035;-6123326039.0;-6011943970.0;244186.0;-17339.99994898471;-17415.891707633873;90.54291864939296;-8.094502845779061e-08;-6333.333333333333;6333.333333252388
0.46400000000000036;-6192686042.0;-6080839233.0;-220554.0;-17339.99994898471;-17235.4594436444;-117.77374534011324;0.0;7750.0;-7750.0
0.46800000000000036;-6262046045.0;-6150388184.0;-31606.0;-17339.999948985034;-17409.016335454533;67.12002646980909;-8.094502845779061e-08;-2333.3333333333335;2333.3333332523885
0.47200000000000036;-6331406048.0;-6219975586.0;195793.0;-17339.999948984387;-17350.695428468644;22.44305948380861;1.6189005691558123e-07;-3916.6666666666665;3916.6666668285566
0.47600000000000037;-6400766051.0;-6288881836.0;-257960.0;-17339.99994898471;-17273.944993087975;-81.53255589685796;-8.094502845779061e-08;5500.0;-5500.000000080945
0.48000000000000037;-6470126055.0;-6358710938.0;211139.0;-17339.99994898471;-17446.844241050625;119.51263206614385;0.0;-6416.666666666667;6416.666666666667
0.4840000000000004;-6539486058.0;-6427776489.0;-83314.0;-17339.999948984387;-17244.835131023912;-100.1636579607657;8.094502845779061e-08;4000.0;-3999.999999919055
0.4880000000000004;-6608846061.0;-6497034302.0;-185504.0;-17339.99994898471;-17362.21225667429;11.082067689640098;-8.094502845779061e-08;2916.6666666666665;-2916.6666667476115
0.4920000000000004;-6678206064.0;-6566841431.0;261622.0;-17339.999948986006;-17417.17810396324;92.87547497882042;-3.2378011383116245e-07;-6416.666666666667;6416.666666342887
