Zeit[sec];Sollposition[°];Istposition[°];Positionsschleppfehler[°];Sollgeschwindigkeit[°/s];Istgeschwindigkeit[°/s];Geschwindigkeitsdifferenz[°/s];Sollbeschleunigung[°/s*s];Istbeschleunigung[°/s*s];Beschleunigungsdifferenz[°/s*s]
0.0;0.0;-5493.0;5493.0;-0.0;-5.577972230007227;5.907552230007227;0.0;0.0;0.0
0.004;0.0;-5493.0;5493.0;-0.0;-0.6216659166934053;0.9512459166934053;0.0;-166.66666666666666;166.66666666666666
0.008;0.0;5493.0;-5493.0;-0.0;2.0330234136551186;-2.3626034136551186;0.0;0.0;0.0
0.012;0.0;0.0;0.0;-0.0;-1.1417812896243427;1.1417812896243427;0.0;0.0;0.0
0.016;0.0;-5493.0;5493.0;-0.0;-0.4995193555728787;0.8290993555728787;0.0;0.0;0.0
0.02;0.0;5493.0;-5493.0;-0.0;1.147524491659845;-1.477104491659845;0.0;83.33333333333333;-83.33333333333333
0.024;0.0;-5493.0;5493.0;-0.0;-4.810787180030718;5.140367180030718;0.0;0.0;0.0
0.028;0.0;5493.0;-5493.0;-0.0;0.602604933081307;-0.932184933081307;0.0;166.66666666666666;-166.66666666666666
0.032;0.0;5493.0;-5493.0;-0.0;-0.15637944147298483;-0.17320055852701516;0.0;-166.66666666666666;166.66666666666666
0.036000000000000004;0.0;-5493.0;5493.0;-0.0;-5.673454177673652;6.003034177673652;0.0;0.0;0.0
0.04000000000000001;0.0;5493.0;-5493.0;-0.0;-0.2020728042330965;-0.12750719576690348;0.0;0.0;0.0
0.04400000000000001;0.0;5493.0;-5493.0;-0.0;-0.15041861860123712;-0.17916138139876286;0.0;0.0;0.0
0.048000000000000015;6598.0;5493.0;-5493.0;1.6495368042270984;2.134379187412948;-2.463959187412948;412.3842010567746;-83.33333333333333;495.7175343901079
0.05200000000000002;72353.0;5493.0;-2877.0;16.438744187338013;2.142544276094639;-1.6611487072311606;3697.301845777729;0.0;3697.301845777729
0.05600000000000002;395552.0;-5493.0;38123.0;80.79976110690586;-4.481904563872197;14.272845759425143;16090.254229891962;0.0;16090.254229891962
0.060000000000000026;1457269.0;5493.0;194618.0;265.42941308465333;0.15105298141516793;53.396253261631706;46157.41299443687;83.33333333333333;46074.07966110353
0.06400000000000003;4111746.0;32959.0;781653.0;663.6190088645033;9.080632753146416;191.4439651911111;99547.39894496248;166.66666666666666;99380.7322782958
0.06800000000000003;9546491.0;175781.0;2327726.0;1358.6863232720307;45.516906242274246;516.3702054895984;173766.82860188186;1333.3333333333333;172433.49526854852
0.07200000000000004;19110379.0;1235962.0;5015022.0;2390.9718963872383;331.15201024214986;906.6185061953777;258071.3932788019;9583.333333333334;248488.05994546856
0.07600000000000004;34107873.0;7108154.0;6198425.0;3749.3732453054768;1552.3882786885754;583.4159848161987;339600.3372295596;67416.66666666667;272183.6705628929
0.08000000000000004;55667648.0;18012085.0;6988528.0;5389.94365890815;2773.367140054625;569.4527978776468;410142.60340066825;176750.0;233392.60340066825
0.08400000000000005;84693431.0;34326782.0;8241329.0;7256.445177823212;4185.121921639606;701.2322158428015;466625.3797287657;272416.6666666667;194208.71306209898
0.08800000000000005;121808280.0;58441772.0;8607819.0;9278.711940683339;6133.433535144542;503.4052346599956;505566.69071503164;353166.6666666667;152400.02404836495
0.09200000000000005;167251923.0;90615234.0;8623582.0;11360.910291363476;8134.540537530493;430.18020151119526;520549.58767003426;411416.6666666667;109132.92100336758
0.09600000000000006;220809045.0;131094360.0;8514145.0;13389.279822419121;10238.886428820631;364.3841042445183;507092.3827639113;475583.3333333333;31509.049430577932
0.10000000000000006;281828899.0;180263672.0;7956542.0;15254.962705489026;12411.099543496186;219.21971269591631;466420.72076747625;515416.6666666667;-48995.94589919042
0.10400000000000006;349305910.0;238073730.0;6614922.0;16869.251928295973;14503.95642327014;10.047853270123596;403572.3057017367;530750.0;-127177.6942982633
0.10800000000000007;421992835.0;302739258.0;5485683.0;18171.73040510376;16214.000809687604;-0.7884062677185284;325619.619201947;522666.6666666667;-197047.04746471968
0.11200000000000007;498554753.0;373568115.0;4161652.0;19140.478552702363;17754.50236435555;-128.597677146372;242187.0368996506;477750.0;-235562.9631003494
0.11600000000000008;577740706.0;449461670.0;2460869.0;19796.48745825503;18973.481521502737;-277.63718239097943;164002.22638816648;413583.3333333333;-249581.10694516683
0.12000000000000008;658508155.0;528348999.0;1153142.0;20191.86106843721;19746.985437990745;-282.89734305323145;98843.40254554537;334250.0;-235406.59745445463
0.12400000000000008;740075892.0;609532471.0;-232714.0;20391.933334125988;20286.24289855579;-350.80262375715756;50018.06642219435;256833.33333333334;-206815.26691113898
0.12800000000000009;821930520.0;691622314.0;-1247073.0;20463.65598352119;20507.951381708543;-313.9058083020391;17930.66234880007;169083.33333333334;-151152.67098453327
0.1320000000000001;903796318.0;773734131.0;-1682094.0;20466.448722380894;20518.815078933527;-200.54277342050773;698.1847149263558;96583.33333333333;-95885.14861840697
0.1360000000000001;985570757.0;855510864.0;-1601451.0;20443.608769450726;20452.07860048;-83.82264953627964;-5709.988232541946;36250.0;-41959.988232541946
0.1400000000000001;1067249374.0;937512817.0;-1773894.0;20419.65329077245;20483.898583687638;-132.95554947354685;-5988.869669568885;3250.0;-9238.869669568885
0.1440000000000001;1148865513.0;1019223633.0;-1747728.0;20404.033646395073;20427.490364475376;-98.10942016703484;-3904.911094344243;-5750.0;1845.0889056557571
0.1480000000000001;1230454478.0;1100588379.0;-1458067.0;20397.240441523038;20343.103156693505;-16.986466726870276;-1698.3012180089645;-8500.0;6801.6987819910355
0.1520000000000001;1312039227.0;1182013550.0;-1277507.0;20396.186070371732;20353.251659911646;-28.470311750726978;-263.59278782638285;-10750.0;10486.407212173617
0.1560000000000001;1393629476.0;1263361816.0;-1038320.0;20397.561271424936;20361.105526061292;-26.542522290401394;343.80026330109104;-10916.666666666666;11260.466929967757
0.16000000000000011;1475226337.0;1344913330.0;-1002880.0;20399.214466111276;20380.38326482349;-43.818570765717595;413.2986715849256;-416.6666666666667;829.9653382515924
0.16400000000000012;1556827347.0;1426354980.0;-851691.0;20400.251476816415;20375.208702686672;-28.10148321844099;259.2526762846319;1750.0;-1490.747323715368
0.16800000000000012;1638429740.0;1507933960.0;-832204.0;20400.59723114394;20374.287797593886;-24.604099628941185;86.4385818813389;4750.0;-4663.561418118661
0.17200000000000013;1720031797.0;1589122925.0;-419635.0;20400.51322710763;20320.01736864962;55.18701812064319;-21.001009077735944;-3833.3333333333335;3812.3323242555975
0.17600000000000013;1801632929.0;1670850220.0;-544678.0;20400.282181173712;20398.741762351183;-30.860543399325252;-57.76148347922572;1333.3333333333333;-1391.094816812559
0.18000000000000013;1883233250.0;1752220459.0;-313225.0;20400.079193213398;20372.757357224116;8.871255991958606;-50.74699007855088;-2333.3333333333335;2282.5863432547826
0.18400000000000014;1964833115.0;1833942261.0;-434211.0;20399.965298885832;20408.525747443116;-34.3753540392172;-28.473581891375943;6333.333333333333;-6361.806915224709
0.18800000000000014;2046432843.0;1915449829.0;-341634.0;20399.930941405997;20370.987158495533;8.55002677916491;-8.589369958826865;1500.0;-1508.5893699588269
0.19200000000000014;2128032613.0;1997045288.0;-337280.0;20399.94159594734;20396.918790732252;-17.203246700784803;2.6636353359208442;1583.3333333333333;-1580.6696979974124
0.19600000000000015;2209632481.0;2078453979.0;-146226.0;20399.966038614053;20357.32275717033;33.83904990816882;6.11066667806881;-2583.3333333333335;2589.4440000114023
0.20000000000000015;2291232431.0;2159835205.0;72357.0;20399.986467761202;20353.430354631702;50.86229002208347;5.107286787279008;-4500.0;4505.107286787279
0.20400000000000015;2372832424.0;2241485596.0;21866.0;20399.997354010397;20395.939732410858;5.346222822088748;2.7215622985750088;333.3333333333333;-330.6117710347583
0.20800000000000016;2454432429.0;2323020630.0;86799.0;20400.000211056475;20407.086170123515;-1.8875658366559946;0.7142615195334656;750.0;-749.2857384804665
0.21200000000000016;2536032428.0;2404594116.0;113310.0;20399.99876857487;20370.24716528208;36.54985771582869;-0.36062040089746006;5333.333333333333;-5333.6939537342305
0.21600000000000016;2617632416.0;2486217041.0;90388.0;20399.99618511933;20432.08934701257;-26.666444617992966;-0.6458638854383025;-1250.0;1249.3541361145617
0.22000000000000017;2699232397.0;2568180542.0;-273119.0;20399.994160540395;20444.426235989387;-60.815623262209556;-0.5061447336629499;8416.666666666666;-8417.172811400329
0.22400000000000017;2780832373.0;2649402466.0;104943.0;20399.993151418512;20315.40580898556;90.88616855725923;-0.25228047070413595;-2500.0;2499.747719529296
0.22800000000000017;2862432349.0;2730992432.0;114955.0;20399.992941837903;20374.799420821553;32.091651480564906;-0.05239515212451806;-1583.3333333333333;1583.2809381812087
0.23200000000000018;2944032325.0;2812609863.0;97501.0;20399.993132949156;20424.430815409018;-18.587681173099554;0.04777781305165263;-8416.666666666666;8416.714444479718
0.23600000000000018;3025632303.0;2894309692.0;-2352.0;20399.993409139985;20401.545839695358;-1.6939408568105137;0.06904770725668641;4750.0;-4749.930952292743
0.24000000000000019;3107232281.0;2975784302.0;123014.0;20399.993611376434;20380.31027057027;27.063810764444497;0.05055911242379807;2500.0;-2499.949440887576
0.2440000000000002;3188832260.0;3057555542.0;-48248.0;20399.993705172263;20472.081585117685;-74.98297741242641;0.023448957108485047;333.3333333333333;-333.30988437622483
0.2480000000000002;3270432239.0;3139579468.0;-472195.0;20399.993719140493;20469.780835123394;-98.1188877433633;0.003492057658149861;6416.666666666667;-6416.663174609009
0.25200000000000017;3352032217.0;3220708008.0;-756.0;20399.993695857564;20300.80838292543;99.13996723543096;-0.005820732440042775;-583.3333333333334;583.3275126008933
0.25600000000000017;3433632196.0;3302281494.0;25736.0;20399.993666832077;20383.435334095902;18.102535731402895;-0.007256371645780746;-4333.333333333333;4333.326076961687
0.2600000000000002;3515232174.0;3383530884.0;376325.0;20399.99364685578;20362.62108481027;59.952099675552745;-0.004994074515707325;-15416.666666666666;15416.66167259215
0.2640000000000002;3596832153.0;3465736084.0;-228897.0;20399.993638285963;20482.723978926602;-96.46413984473111;-0.0021424539227155037;8750.0;-8750.002142453923
0.2680000000000002;3678432131.0;3546776733.0;330433.0;20399.99363760609;20296.37263797438;123.44698560061806;-0.00016996818885672837;3250.0;-3250.000169968189
0.2720000000000002;3760032110.0;3628905029.0;-197885.0;20399.993640333476;20520.63541853373;-132.51488046714803;0.0006818463589297608;5333.333333333333;-5333.332651486974
0.2760000000000002;3841632088.0;3710291748.0;15375.0;20399.993643351823;20336.695773508;64.22036518346431;0.0007545868356828578;-1416.6666666666667;1416.6674212535024
0.2800000000000002;3923232066.0;3792068481.0;-161380.0;20399.99364530723;20451.203507482456;-60.892665968196525;0.0004888515832135454;-500.0;500.0004888515832
0.2840000000000002;4004832045.0;3873295898.0;211181.0;20399.9936460759;20310.15608530188;102.50841880753796;0.00019216804503230378;-83.33333333333333;83.33352550137836
0.2880000000000002;4086432023.0;3955270386.0;-163328.0;20399.993646070434;20523.486454874095;-133.29248927360823;-1.3669705367647111e-06;-8000.0;7999.9999986330295
0.2920000000000002;4168032002.0;4036898804.0;-191768.0;20399.993645759758;20348.74072123368;39.746844835561205;-7.766902854200453e-05;12000.0;-12000.000077669029
0.2960000000000002;4249631980.0;4117829590.0;477425.0;20399.993645448445;20318.06366527114;110.57548067619064;-7.782819011481479e-05;-12166.666666666666;12166.666588838476
0.3000000000000002;4331231959.0;4200155640.0;-248647.0;20399.993645258757;20506.29854301306;-121.22371737493086;-4.742196324514225e-05;8416.666666666666;-8416.66671408863
0.3040000000000002;4412831937.0;4281498413.0;8559.0;20399.993645191586;20374.024454292947;26.482731082131068;-1.6792910173535347e-05;-7166.666666666667;7166.666649873757
0.3080000000000002;4494431916.0;4363406982.0;-300032.0;20399.993645199345;20425.344671739156;-43.352946505940054;1.939952198881656e-06;15333.333333333334;-15333.333331393382
0.3120000000000002;4576031894.0;4444172974.0;533955.0;20399.99364523369;20217.906416974085;214.124528220942;8.586539479438215e-06;-12416.666666666666;12416.666675253206
0.3160000000000002;4657631873.0;4526438599.0;-131692.0;20399.993645265375;20545.200841093985;-153.10871588111695;7.920789357740432e-06;-5250.0;5250.000007920789
0.32000000000000023;4739231851.0;4607567139.0;339747.0;20399.993645283947;20265.854316860426;154.52414838564073;4.642970452550799e-06;2750.0;-2749.9999953570295
0.32400000000000023;4820831829.0;4689376831.0;130033.0;20399.9936452898;20490.065450795242;-82.26982552272602;1.4633769751526415e-06;-1083.3333333333333;1083.3333347967102
0.32800000000000024;4902431808.0;4771065674.0;41168.0;20399.993645288272;20375.394495412642;27.069229873563017;-3.8198777474462986e-07;11333.333333333334;-11333.333333715322
0.33200000000000024;4984031786.0;4852666626.0;40195.0;20399.993645283947;20481.604428037776;-79.19908274865884;-1.0813892004080117e-06;-10666.666666666666;10666.666665585277
0.33600000000000024;5065631765.0;4934739990.0;-433191.0;20399.99364528166;20438.260557009253;-64.25837172269166;-5.720721674151719e-07;20166.666666666668;-20166.66666723874
0.34000000000000025;5147231743.0;5015511475.0;395303.0;20399.99364527911;20264.63054599423;159.08127928878457;-6.366462912410498e-07;-17750.0;17749.999999363354
0.34400000000000025;5228831722.0;5097903442.0;-396686.0;20399.993645278857;20541.08998344141;-164.8974981607389;-6.366462912410498e-08;7833.333333333333;-7833.333333396998
0.34800000000000025;5310431700.0;5178647461.0;459274.0;20399.99364527911;20216.24492716305;211.3051581159998;6.366462912410498e-08;-13000.0;13000.000000063665
0.35200000000000026;5392031679.0;5260962524.0;-255811.0;20399.993645279625;20573.087092525195;-188.44210724626464;1.2823875294998288e-07;5416.666666666667;-5416.666666538428
0.35600000000000026;5473631657.0;5342063599.0;243093.0;20399.993645279625;20275.84585119517;138.73337408409134;0.0;3250.0;-3250.0
0.36000000000000026;5555231636.0;5424076538.0;-169868.0;20399.993645279625;20540.937857761615;-151.13629248200596;0.0;-5000.0;5000.0
0.36400000000000027;5636831614.0;5505584106.0;-77457.0;20399.993645279876;20300.711157780934;94.63506749866428;6.275513442233205e-08;14583.333333333334;-14583.333333270579
0.36800000000000027;5718431593.0;5586954346.0;152281.0;20399.993645279876;20418.377435894537;-9.246930614779558;0.0;-17000.0;17000.0
0.3720000000000003;5800031571.0;5668796997.0;-90391.0;20399.99364528064;20388.973928087617;5.596257192235498;1.9099388737231493e-07;12583.333333333334;-12583.33333314234
0.3760000000000003;5881631549.0;5749738770.0;567814.0;20399.993645279876;20299.672616292875;134.3898689872767;-1.9099388737231493e-07;-20250.0;20249.999999809006
0.3800000000000003;5963231528.0;5832064819.0;-158257.0;20399.993645279876;20529.88014160756;-139.381916327191;0.0;14916.666666666666;-14916.666666666666
0.3840000000000003;6044831506.0;5913176880.0;329661.0;20399.993645279876;20299.160478346614;120.6128269332221;0.0;-4666.666666666667;4666.666666666667
0.3880000000000003;6126431485.0;5995409546.0;-303027.0;20399.993645279876;20543.193580567364;-161.3815552874621;0.0;9833.333333333334;-9833.333333333334
0.3920000000000003;6208031463.0;6076669922.0;36576.0;20399.993645279876;20295.93707237653;106.25113290332592;0.0;2250.0;-2250.0
0.3960000000000003;6289631442.0;6158644409.0;-337933.0;20399.993645279876;20545.044461869253;-165.32679658940833;0.0;-7250.0;7250.0
0.4000000000000003;6371231420.0;6240190430.0;-283975.0;20399.99364528038;20319.538111776317;63.41703350356693;1.2641976354643703e-07;10333.333333333334;-10333.333333206914
0.4040000000000003;6452831399.0;6321384888.0;121545.0;20399.993645279625;20359.055265667525;48.23107961252754;-1.8917489796876907e-07;-17416.666666666668;17416.666666477493
0.4080000000000003;6534430778.0;6403073730.0;32682.0;20399.843914784207;20371.254429127228;30.700136152845516;-37.432623854328995;6583.333333333333;-6620.765957187662
0.4120000000000003;6616025686.0;6484372559.0;333594.0;20398.726075883395;20359.34840669081;60.60151278687772;-279.4597252031963;-16166.666666666666;15887.20694146347
0.4160000000000003;6697604382.0;6566390991.0;-87228.0;20394.673003001088;20453.841724741684;-59.67381828836733;-1013.2682205767196;15333.333333333334;-16346.601553910054
0.4200000000000003;6779142098.0;6647557983.0;334286.0;20384.428012972698;20324.923358107193;92.25944754491502;-2561.247507097505;-3416.6666666666665;855.4191595691614
0.4240000000000003;6860593254.0;6729730225.0;-275413.0;20362.787896190446;20533.053041775805;-158.9430487691243;-5410.029195562856;6666.666666666667;-12076.695862229524
0.4280000000000003;6941880596.0;6811072998.0;-114549.0;20321.83462098435;20321.441094871734;47.594039162057015;-10238.318801523747;2000.0;-12238.318801523747
0.43200000000000033;7022888661.0;6892239990.0;105172.0;20252.01532612306;20322.60950532097;30.37817470447044;-17454.823715323073;-8500.0;-8954.823715323073
0.43600000000000033;7103467312.0;6973203735.0;319000.0;20144.661773549487;20231.82569051259;81.70663158267416;-26838.388143392876;-9916.666666666666;-16921.721476726212
0.44000000000000034;7183442159.0;7054480591.0;-118411.0;19993.710797431275;20334.854138379225;-132.0983810215439;-37737.74402955314;-18000.0;-19737.74402955314
0.44400000000000034;7262618448.0;7135389404.0;-685455.0;19794.071211734044;20173.90501883053;-129.59122398083855;-49909.89642430759;3916.6666666666665;-53826.563090974254
0.44800000000000034;7340756655.0;7215358887.0;-993169.0;19534.550866259935;19983.32114686216;-127.46998741556308;-64880.08636852737;-17250.0;-47630.08636852737
0.45200000000000035;7417520693.0;7294383545.0;-1248442.0;19191.00870885176;19706.25136894549;-88.81267598915292;-85885.53935204344;-29750.0;-56135.53935204345
0.45600000000000035;7492433463.0;7371732788.0;-998232.0;18728.19161662516;19369.138999720686;-29.17052400263492;-115704.27305664998;-68250.0;-47454.27305664998
0.46000000000000035;7564858485.0;7448400879.0;-1628232.0;18106.254667204812;19121.752361872695;-209.92437624320155;-155484.2373550873;-67500.0;-87984.23735508732
0.46400000000000036;7633998777.0;7522465210.0;-1755300.0;17285.071997603;18494.230582342323;-115.23342949783546;-205295.66740045266;-87416.66666666667;-117879.00073378599
0.46800000000000036;7698923402.0;7594370728.0;-2523563.0;16231.155534804031;17951.340305176553;-318.4413536765642;-263479.1156997426;-106083.33333333333;-157395.78236640926
0.47200000000000036;7758649449.0;7662496948.0;-3161691.0;14931.511162545421;16950.05093906168;-267.73019430914064;-324911.0930646525;-144083.33333333334;-180827.75973131915
0.47600000000000037;7812263852.0;7726349487.0;-4126058.0;13403.599908665617;15949.410204921369;-474.93154500040873;-381977.81346995087;-200166.66666666666;-181811.14680328424
0.48000000000000037;7859031816.0;7785175781.0;-5619016.0;11691.990448208373;14574.082078949648;-577.8897112105333;-427902.3651143111;-236333.33333333334;-191569.0317809778
0.4840000000000004;7898483463.0;7836602783.0;-6110311.0;9862.911465469864;12779.869337739956;-412.56189124470075;-457269.7456846272;-316083.3333333333;-141186.4123512939
0.4880000000000004;7930491240.0;7880987549.0;-6587802.0;8001.943759099178;11004.420255144496;-422.8702025504772;-465241.9265926715;-374166.6666666667;-91075.25992600477
0.4920000000000004;7955299015.0;7917363281.0;-6420396.0;6201.943435320178;9022.251449657657;-271.69110247886965;-450000.08094475017;-444166.6666666667;-5833.414278083466
0.4960000000000004;7973480556.0;7946581421.0;-6441831.0;4545.384995191749;7242.225328343172;-329.5593249627527;-414139.61003210716;-466750.0;52610.38996789284
0.5000000000000003;7985878915.0;7968405762.0;-6043408.0;3099.5898147771013;5354.231610511191;-161.14531607923072;-361448.79510366195;-464750.0;103301.20489633805
