Zeit[sec];Sollposition[°];Istposition[°];Positionsschleppfehler[°];Sollgeschwindigkeit[°/s];Istgeschwindigkeit[°/s];Geschwindigkeitsdifferenz[°/s];Sollbeschleunigung[°/s*s];Istbeschleunigung[°/s*s];Beschleunigungsdifferenz[°/s*s]
0.0;0.0;5.0;-5.0;-0.0;-0.00021499999999999997;0.0;0.0;0.0;0.0
0.004;0.0;5.0;-5.0;-0.0;-0.00021499999999999997;0.0;0.0;0.0;0.0
0.008;0.0;5.0;-5.0;-0.0;-0.00021499999999999997;0.0;0.0;0.0;0.0
0.012;0.0;5.0;-5.0;-0.0;-0.00021499999999999997;0.0;0.0;0.0;0.0
0.016;0.0;5.0;-5.0;-0.0;-0.00021499999999999997;0.0;0.0;0.0;0.0
0.02;0.0;5.0;-5.0;-0.0;-0.00021499999999999997;0.0;0.0;0.0;0.0
0.024;0.0;5.0;-5.0;-0.0;-0.00021499999999999997;0.0;0.0;0.0;0.0
0.028;0.0;5.0;-5.0;-0.0;-0.00021499999999999997;0.0;0.0;0.0;0.0
0.032;0.0;5.0;-5.0;-0.0;-0.00021499999999999997;0.0;0.0;0.0;0.0
0.036000000000000004;0.0;5.0;-5.0;-0.0;-0.00021499999999999997;0.0;0.0;0.0;0.0
0.04000000000000001;0.0;5.0;-5.0;-0.0;-0.00021499999999999997;0.0;0.0;0.0;0.0
0.04400000000000001;0.0;5.0;-5.0;-0.0;-0.00021499999999999997;0.0;0.0;0.0;0.0
0.048000000000000015;0.0;5.0;-5.0;-0.0;-0.00021499999999999997;0.0;0.0;0.0;0.0
0.05200000000000002;2858.0;5.0;-5.0;0.7145232088738009;-0.00021499999999999997;0.0;178.63080221845024;0.0;178.63080221845024
0.05600000000000002;31340.0;5.0;2853.0;7.120704561724489;-0.00021499999999999997;0.8374172088738009;1601.545338212672;0.0;1601.545338212672
0.060000000000000026;171339.0;3353.0;27987.0;34.99970684764096;0.8372022088738009;7.4869433528506875;6969.750571479117;0.0;6969.750571479117
0.06400000000000003;633698.0;36649.0;134690.0;115.58962247131548;8.324145561724489;32.46723128591647;20147.47890591863;0.0;20147.47890591863
0.06800000000000003;1804340.0;199814.0;433884.0;292.660456963422;40.791376847640954;93.45525762367453;44267.70862302663;83.33333333333333;44184.3752896933
0.07200000000000004;4245850.0;736800.0;1067540.0;610.3775509576002;134.24663447131547;204.31804249210654;79429.27349854454;416.6666666666667;79012.60683187789
0.07600000000000004;8640886.0;2091058.0;2154792.0;1098.7589857217158;338.564676963422;364.4689299941782;122095.3586910289;1333.3333333333333;120762.02535769557
0.08000000000000004;15720277.0;4903192.0;3737694.0;1769.8477543925608;703.0336069576002;556.4462207641155;167772.19216771124;3083.3333333333335;164688.8588343779
0.08400000000000005;26225390.0;9941111.0;5779166.0;2626.2781322762944;1259.4798277217158;758.872064670845;214107.5944709334;6000.0;208107.5944709334
0.08800000000000005;40897896.0;18014518.0;8210872.0;3668.126117655836;2018.3518923925608;960.9937358837337;260461.99634488538;10333.333333333334;250128.66301155207
0.09200000000000005;60454613.0;29931900.0;10965996.0;4889.179211074892;2979.3456282762945;1160.3183173795414;305263.27335476404;16250.0;289013.27335476404
0.09600000000000006;85537328.0;46490555.0;13964058.0;6270.678373244047;4139.663945655836;1349.9697594190557;345374.7905422888;23833.333333333332;321541.4572089555
0.10000000000000006;116667296.0;68449089.0;17088239.0;7782.491564066294;5489.633705074892;1515.8389451691555;377953.2977055617;32833.333333333336;345119.96437222837
0.10400000000000006;154219595.0;96470979.0;20196317.0;9388.074373169913;7005.472650244047;1645.4605448222474;401395.70227590477;43333.333333333336;358062.36894257145
0.10800000000000007;198410734.0;131074711.0;23144884.0;11047.784209992882;8650.933195066295;1732.3711901036186;414927.4592057422;55083.333333333336;359844.1258724089
0.11200000000000007;249306331.0;172607928.0;25802806.0;12723.89870656742;10383.304385169913;1774.0004828229685;419028.6241436343;67833.33333333333;351195.2908103009
0.11600000000000008;306856332.0;221237147.0;28069184.0;14387.499428356712;12157.304867992882;1773.5687505745373;415900.18044732325;81250.0;334650.18044732325
0.12000000000000008;370943731.0;276960641.0;29895691.0;16021.848942695913;13930.873618567419;1742.1405227892938;408587.3785848003;94916.66666666667;313670.7119181336
0.12400000000000008;441426708.0;339652697.0;31291034.0;17620.74348775066;15673.014141356713;1694.3492633391998;399723.6362636868;108750.0;290973.6362636868
0.12800000000000009;518164494.0;409122150.0;32304558.0;19184.44559609556;17367.363404695912;1642.4760770547473;390925.527086225;122333.33333333333;268592.1937528916
0.1320000000000001;601027702.0;485161507.0;33002987.0;20715.80096409586;19009.83948175066;1593.7345553449013;382838.8420000747;135583.33333333334;247255.50866674134
0.1360000000000001;689898572.0;567575803.0;33451899.0;22217.716419833014;20603.57403709556;1550.658584000299;375478.86393428873;148416.66666666666;227062.19726762205
0.1400000000000001;784666727.0;656192733.0;33705839.0;23692.037683510007;22154.23262109586;1512.8348757371532;368580.31591924827;160833.33333333334;207746.98258591493
0.1440000000000001;885224409.0;750861002.0;33805725.0;25139.419453321276;23667.067496833013;1478.6163616769918;361845.4424528172;173000.0;188845.44245281722
0.1480000000000001;991462661.0;851443737.0;33780672.0;26559.561534316937;25145.683858510005;1446.3044908112715;355035.5202489154;184750.0;170285.52024891542
0.1520000000000001;1103267351.0;957811690.0;33650971.0;27951.17128833917;26591.988349321276;1414.5649379956594;347902.4385055582;196333.33333333334;151569.1051722248
0.1560000000000001;1220514606.0;1069837903.0;33429448.0;29311.812285375392;28006.553287316936;1382.084265022233;340160.2492590555;207666.66666666666;132493.58259238885
0.16000000000000011;1343064045.0;1187392453.0;33122153.0;30637.358453951067;29388.63755233917;1347.4273120362232;331386.54214391863;218750.0;112636.54214391863
0.16400000000000012;1470741887.0;1310336712.0;32727333.0;31919.458925028546;30736.064864375392;1308.5689085756749;320525.1177693699;229583.33333333334;90941.78443603656
0.16800000000000012;1603313777.0;1438515247.0;32226640.0;33142.97094373194;32044.633772951067;1260.5706720774797;305878.0046758484;240000.0;65878.00467584838
0.17200000000000013;1740466023.0;1571736064.0;31577713.0;34288.05976921925;33305.20444502855;1195.608157703391;286272.20637182833;250250.0;36022.20637182836
0.17600000000000013;1881809214.0;1709739314.0;30726709.0;35335.79607691867;34500.81260273194;1108.4956534873127;261934.07692485378;260000.0;1934.0769248537981
0.18000000000000013;2026897847.0;1852176547.0;29632667.0;36272.15647996011;35609.30825621925;1000.692501699421;234090.10076036066;269333.3333333333;-35243.23257297266
0.18400000000000014;2175253722.0;1998616550.0;28281297.0;37088.967144751536;36610.00075791867;878.25149304144;204202.66619785616;277916.6666666667;-73714.00046881053
0.18800000000000014;2326386183.0;2148569559.0;26684163.0;37783.11340777052;37488.25225096011;748.1339027914219;173536.56575474632;285666.6666666667;-112130.10091192035
0.19200000000000014;2479806129.0;2301515103.0;24871080.0;38354.98459539644;38236.38615375153;616.1836940189896;142967.79690647963;292500.0;-149532.20309352037
0.19600000000000015;2635037000.0;2456925382.0;22880747.0;38807.71590481399;38852.56984777052;486.2868686259171;113182.82735438697;298250.0;-185067.17264561303
0.20000000000000015;2791634339.0;2614280808.0;20756192.0;39149.3328686933;39338.85671639644;361.37544441755017;85404.2409698286;302750.0;-217345.75903017138
0.20400000000000015;2949215678.0;2773081736.0;18552603.0;39395.33297295805;39700.23216081399;246.86263687931205;61500.026066187274;305666.6666666667;-244166.6406004794
0.20800000000000016;3107481860.0;2932870115.0;16345563.0;39566.54362169951;39947.0947976933;151.09738426475087;42802.66218536417;306750.0;-263947.33781463583
0.21200000000000016;3266216305.0;3093262883.0;14218977.0;39683.60928216639;40098.19218195805;79.76745074145583;29266.415116720964;305833.3333333333;-276566.91821661236
0.21600000000000016;3425268805.0;3253974721.0;12241584.0;39763.123146395315;40177.95963269951;32.03776146688324;19878.46605723098;302666.6666666667;-282788.2006094357
0.22000000000000017;3584535069.0;3414814710.0;10454095.0;39816.56408493449;40209.99739416639;2.6518372289210674;13360.234634794324;297500.0;-284139.7653652057
0.22400000000000017;3743940000.0;3575665306.0;8869763.0;39851.231022910346;40212.64923139531;-14.685337460818118;8666.734493963304;290250.0;-281583.2655060367
0.22800000000000017;3903428576.0;3736457161.0;7482839.0;39872.14206590712;40197.963893934495;-24.970794024149654;5227.7607491942035;281333.3333333333;-276105.5725841391
0.23200000000000018;4062961794.0;3897149133.0;6279443.0;39883.302644776304;40172.993099910345;-30.834985003224574;2790.144717295334;270666.6666666667;-267876.5219493713
0.23600000000000018;4222513877.0;4057717765.0;5244029.0;39888.018827460044;40142.15811490712;-33.362223130818165;1179.045670935011;258750.0;-257570.954329065
0.24000000000000019;4382069747.0;4218152948.0;4360929.0;39888.965427221774;40108.7958917763;-33.25711731625779;236.64994043247134;245750.0;-245513.35005956754
0.2440000000000002;4541622485.0;4378455103.0;3614644.0;39888.182699864876;40075.538774460045;-31.143655238272913;-195.68183922456228;232166.66666666666;-232362.34850589122
0.2480000000000002;4701170484.0;4538632683.0;2989802.0;39886.99787594805;40044.39511922177;-27.65093335689744;-296.2059792062064;218166.66666666666;-218462.87264587288
0.25200000000000017;4860714744.0;4698699659.0;2470825.0;39886.06306983564;40016.744185864874;-23.500834916820168;-233.70152810275613;204166.66666666666;-204400.36819476943
0.25600000000000017;5020256940.0;4858672632.0;2042112.0;39885.54717174817;39993.243350948054;-19.369465112416947;-128.9745218673488;190333.33333333334;-190462.3078552007
0.2600000000000002;5179798422.0;5018568127.0;1688813.0;39885.368489598804;39973.87388583564;-15.707755087467376;-44.67053734151705;176916.66666666666;-176961.3372040082
0.2640000000000002;5339339930.0;5178400791.0;1397631.0;39885.37517208206;39958.16613074817;-12.699508149366011;1.6706208134564804;163916.66666666666;-163914.9960458532
0.2680000000000002;5498880416.0;5338182657.0;1157273.0;39885.119656236035;39945.466622598804;-10.328711516747717;-63.87896150590677;151333.33333333334;-151397.21229483926
0.2720000000000002;5658411496.0;5497923208.0;957208.0;39882.76809301069;39935.137911082056;-8.858310846022505;-587.8908063368726;139083.33333333334;-139671.2241396702
0.2760000000000002;5817907725.0;5657628326.0;783170.0;39874.05532480217;39926.279600236034;-9.835197225344018;-2178.192052129816;127166.66666666667;-129344.85871879649
0.2800000000000002;5977314626.0;5817294103.0;613622.0;39851.723393970926;39916.44440301069;-16.003332208521897;-5582.982707810515;115500.0;-121082.98270781052
0.2840000000000002;6136527699.0;5976895867.0;418759.0;39803.2663654829;39900.44107080217;-30.711039831243397;-12114.257122006165;104166.66666666667;-116280.92378867284
0.2880000000000002;6295361724.0;6136374787.0;152912.0;39708.50435419647;39869.730030970924;-59.8884494880258;-23690.50282160788;92916.66666666667;-116607.16948827455
0.2920000000000002;6453530350.0;6295614153.0;-252429.0;39542.15447283941;39809.8415814829;-112.19167428642686;-41587.470339265565;81916.66666666667;-123504.13700593224
0.2960000000000002;6610649740.0;6454404752.0;-874402.0;39279.84567076196;39697.64990719647;-193.0947203570613;-65577.20051936121;70833.33333333333;-136410.53385269456
0.3000000000000002;6766258204.0;6612422972.0;-1773232.0;38902.11414683449;39504.55518683941;-300.9584920774505;-94432.88098186895;59750.0;-154182.88098186895
0.3040000000000002;6919834397.0;6769237358.0;-2979154.0;38394.046592144856;39203.59669476196;-429.58616992747557;-127016.88867240773;48333.333333333336;-175350.22200574106
0.3080000000000002;7070792738.0;6924333400.0;-4499003.0;37739.58347729271;38774.010524834484;-573.4210616896307;-163615.77871303598;36666.666666666664;-200282.44537970264
0.3120000000000002;7218453254.0;7077135757.0;-6343019.0;36915.12713696544;38200.589463144854;-733.7558028521453;-206114.0850818174;24583.333333333332;-230697.41841515072
0.3160000000000002;7362021283.0;7227003091.0;-8549837.0;35892.00546691949;37466.83366029271;-919.3495143272667;-255780.41751148883;12333.333333333334;-268113.7508448222
0.32000000000000023;7500613581.0;7373193027.0;-11171744.0;34648.07301509088;36547.48414596544;-1135.863671045954;-310983.11295715213;-333.3333333333333;-310649.77962381876
0.32400000000000023;7633322565.0;7514839508.0;-14225927.0;33177.24446053347;35411.62047491949;-1375.2623208286095;-367707.1386393527;-13416.666666666666;-354290.47197268606
0.32800000000000024;7759278408.0;7650984940.0;-17662375.0;31488.959204346425;34036.35815409088;-1618.595818557409;-422071.31404676056;-27166.666666666668;-394904.64738009387
0.33200000000000024;7877684026.0;7780655989.0;-21377581.0;29601.402912323585;32417.76233553347;-1848.0391141870423;-471889.0730057101;-41750.0;-430139.0730057101
0.33600000000000024;7987824796.0;7902934881.0;-25250855.0;27535.191380137505;30569.723221346427;-2054.1070740228424;-516552.88304652006;-57166.666666666664;-459386.2163798534
0.34000000000000025;8089068053.0;8016997345.0;-29172549.0;25310.813070634664;28515.616147323584;-2234.844374186079;-556094.5773757102;-73583.33333333333;-482511.244042377
0.34400000000000025;8180879334.0;8122120432.0;-33052379.0;22952.819137251096;26280.771773137505;-2391.2109995028404;-589498.483345892;-90750.0;-498748.48334589205
0.34800000000000025;8262863201.0;8217678675.0;-36799341.0;20495.9655894463;23889.560773634665;-2519.113299383571;-614213.386951199;-108833.33333333333;-505380.0536178657
0.35200000000000026;8334801811.0;8303160464.0;-40297263.0;17984.651860164595;21370.447474251094;-2607.2641938047927;-627828.4323204261;-127750.0;-500078.43232042616
0.35600000000000026;8396683816.0;8378213197.0;-43411386.0;15470.500460787887;18763.1832804463;-2645.2210182817053;-628537.8498441769;-147416.66666666666;-481121.1831775102
0.36000000000000026;8448732529.0;8442685046.0;-46001230.0;13012.177570259375;16117.962262164596;-2625.5146913767076;-614580.722632128;-167583.33333333334;-446997.38929879473
0.36400000000000027;8491413465.0;8496654836.0;-47922307.0;10670.233536675914;13492.447570787888;-2540.9292015285137;-585486.0083958652;-187833.33333333334;-397652.67506253184
0.36800000000000027;8525409508.0;8540460909.0;-49047444.0;8499.010390215935;10951.518369259375;-2390.3249245834595;-542805.7866149948;-207916.66666666666;-334889.1199483281
0.3720000000000003;8551582248.0;8574705682.0;-49296174.0;6543.184609265977;8561.193444675915;-2181.91853645998;-488956.44523748953;-227333.33333333334;-261623.11190415622
0.3760000000000003;8570925375.0;8600222781.0;-48640533.0;4835.781429605162;6379.274908215935;-1927.6332179499577;-426850.79491520376;-245666.66666666666;-181184.12824853713
0.3800000000000003;8584504590.0;8618029347.0;-47103972.0;3394.803769699143;4451.641690265978;-1641.3310566608152;-360244.4149765048;-262416.6666666667;-97827.74830983812
0.3840000000000003;8593405337.0;8629270589.0;-44765999.0;2225.1865897516773;2810.3106336051624;-1340.4448209060195;-292404.29498686636;-277166.6666666667;-15237.628320199688
0.3880000000000003;8598710752.0;8635150052.0;-41744715.0;1326.3535832516413;1469.865812699143;-1039.7019679474654;-224708.251625009;-289750.0;65041.74837499102
0.3920000000000003;8601474625.0;8636870707.0;-38159955.0;690.9683908785464;430.1638447516775;-744.688326500036;-158846.29809327374;-300000.0;141153.70190672626
0.3960000000000003;8602644425.0;8635612610.0;-34137985.0;292.4498427524371;-314.52448174835854;-462.44048237309494;-99629.63703152732;-308000.0;208370.36296847268
0.4000000000000003;8602965989.0;8632504751.0;-29860326.0;80.39100799202072;-776.9649641214535;-214.57921112610927;-53014.708690104104;-313833.3333333333;260818.6246432292
0.4040000000000003;8602936859.0;8628538575.0;-25572586.0;-7.282385483021688;-991.5441752475627;-27.686014760416356;-21918.348368760602;-317416.6666666667;295498.3182979061
0.4080000000000003;8602828423.0;8624461655.0;-21524796.0;-27.109167337215975;-1019.2301900079791;86.3815765249575;-4956.695463548572;-319250.0;314293.3045364514
0.4120000000000003;8602750366.0;8620730261.0;-17901838.0;-19.51416432945785;-932.8486134830216;135.96041214580578;1898.7507519395317;-319500.0;321398.75075193954
0.4160000000000003;8602721813.0;8617542709.0;-14792343.0;-7.13819267937304;-796.8882013372158;141.30328800775806;3093.992912521202;-318833.3333333333;321927.3262458545
0.4200000000000003;8602726001.0;8614920370.0;-12198557.0;1.0469973482355535;-655.5849133294578;123.90876965008488;2046.2975069021484;-317583.3333333333;319629.63084023545
0.4240000000000003;8602741710.0;8612793666.0;-10067665.0;3.9272569777230846;-531.6761436793729;99.81354602760848;720.0649073718828;-316000.0;316720.0649073719
0.4280000000000003;8602755530.0;8611066216.0;-8324506.0;3.455010758781346;-431.8625976517644;77.83609662948754;-118.06155473543467;-314166.6666666667;314048.6051119313
0.43200000000000033;8602762844.0;8609650110.0;-6894580.0;1.8285224924152639;-354.0265010222769;61.01457178105824;-406.6220665915205;-311750.0;311343.3779334085
0.43600000000000033;8602764453.0;8608478063.0;-5715219.0;0.40209231963388176;-293.01192924121864;49.08603473363394;-356.60754319534556;-308750.0;308393.39245680464
0.44000000000000034;8602763000.0;8607502360.0;-4737907.0;-0.3632311269380316;-243.9258945075847;40.597985827218594;-191.33086164297833;-304916.6666666667;304725.33580502373
0.44400000000000034;8602760804.0;8606689049.0;-3926049.0;-0.5490106801987154;-203.3279086803661;34.14457055342811;-46.444888315170935;-300000.0;299953.55511168484
0.44800000000000034;8602756201.0;8606012316.0;-3251512.0;-1.1507827484491422;-169.183338126938;28.819311446739306;-150.4430170626067;-293833.3333333333;293682.8903162707
0.45200000000000035;8602726253.0;8605450860.0;-2694659.0;-7.487003117796837;-140.3640266801987;23.342906931749553;-1584.0550923369237;-286250.0;284665.9449076631
0.45600000000000035;8602583015.0;8604982776.0;-2256523.0;-35.80943025875754;-117.02111974844914;12.503627630652318;-7080.606785240175;-277083.3333333333;270002.72654809314
0.46000000000000035;8602110725.0;8604564707.0;-1981692.0;-118.07258840944391;-104.51749211779682;-16.50469414096071;-20565.789537671593;-266250.0;245684.2104623284
0.46400000000000036;8600914739.0;8604080619.0;-1969894.0;-298.9963492533734;-121.02218625875753;-81.75584415068636;-45230.94021098238;-253583.33333333334;208352.39312235097
0.46800000000000036;8598419895.0;8603269507.0;-2354768.0;-623.7110018896227;-202.7780304094439;-197.47334284392952;-81178.66315906233;-239416.66666666666;158238.00350760433
0.47200000000000036;8593928242.0;8601668502.0;-3248607.0;-1122.9130936616048;-400.2513732533734;-363.14972963624933;-124800.5229429955;-224166.66666666666;99366.14372367115
0.47600000000000037;8586692468.0;8598614898.0;-4686656.0;-1808.9434103545166;-763.4011028896227;-561.038198771982;-171507.57917322795;-208416.66666666666;36909.0874934387
0.48000000000000037;8575954369.0;8593317141.0;-6624673.0;-2684.5247360160374;-1324.4393016616048;-769.3650476929117;-218895.3314153802;-192833.33333333334;-26061.99808204687
0.4840000000000004;8560955341.0;8584941924.0;-8987555.0;-3749.7568384746723;-2093.8043493545165;-977.1852516615209;-266308.0256146587;-177583.33333333334;-88724.69228132539
0.4880000000000004;8540962081.0;8572657966.0;-11702625.0;-4998.314843979743;-3070.9896010160373;-1181.9801124586347;-312139.50137626776;-163416.66666666666;-148722.83470960107
0.4920000000000004;8515317808.0;8555646088.0;-14684007.0;-6411.067784660546;-4252.969713474672;-1376.7574315050715;-353188.23517020064;-150500.0;-202688.23517020064
0.4960000000000004;8483488692.0;8533127180.0;-17809372.0;-7957.278777015456;-5629.727144979744;-1547.1436356808017;-386552.74808872765;-139333.33333333334;-247219.4147553943
0.5000000000000003;8445090016.0;8504419697.0;-20931005.0;-9599.668439390056;-7176.870780660545;-1680.4412113549115;-410597.4155936499;-130333.33333333333;-280264.0822603165
0.5040000000000003;8399898822.0;8468990450.0;-23900434.0;-11297.79792094424;-8857.311992015457;-1770.0751093745985;-424532.370388546;-123750.0;-300782.370388546
