Zeit[sec];Sollposition[°];Istposition[°];Positionsschleppfehler[°];Sollgeschwindigkeit[°/s];Istgeschwindigkeit[°/s];Geschwindigkeitsdifferenz[°/s];Sollbeschleunigung[°/s*s];Istbeschleunigung[°/s*s];Beschleunigungsdifferenz[°/s*s]
0.0;0.0;2.0;-2.0;-0.0;-0.000192;0.0;0.0;0.0;0.0
0.004;0.0;2.0;-2.0;-0.0;-0.000192;0.0;0.0;0.0;0.0
0.008;0.0;2.0;-2.0;-0.0;-0.000192;0.0;0.0;0.0;0.0
0.012;0.0;2.0;-2.0;-0.0;-0.000192;0.0;0.0;0.0;0.0
0.016;0.0;2.0;-2.0;-0.0;-0.000192;0.0;0.0;0.0;0.0
0.02;0.0;2.0;-2.0;-0.0;-0.000192;0.0;0.0;0.0;0.0
0.024;0.0;2.0;-2.0;-0.0;-0.000192;0.0;0.0;0.0;0.0
0.028;0.0;2.0;-2.0;-0.0;-0.000192;0.0;0.0;0.0;0.0
0.032;0.0;2.0;-2.0;-0.0;-0.000192;0.0;0.0;0.0;0.0
0.036000000000000004;0.0;2.0;-2.0;-0.0;-0.000192;0.0;0.0;0.0;0.0
0.04000000000000001;0.0;2.0;-2.0;-0.0;-0.000192;0.0;0.0;0.0;0.0
0.04400000000000001;0.0;2.0;-2.0;-0.0;-0.000192;0.0;0.0;0.0;0.0
0.048000000000000015;0.0;2.0;-2.0;-0.0;-0.000192;0.0;0.0;0.0;0.0
0.05200000000000002;0.0;2.0;-2.0;-4.831694320450417e-13;-0.000192;0.0;-1.2079235801126042e-10;0.0;-1.2079235801126042e-10
0.05600000000000002;0.0;2.0;-2.0;-4.815108503294762e-12;-0.000192;-4.831694397876285e-13;-1.08298476781243e-09;0.0;-1.08298476781243e-09
0.060000000000000026;0.0;2.0;-2.0;-2.3667234694831553e-11;-0.00019200000048316944;-4.331939050094408e-12;-4.713031547884198e-09;0.0;-4.713031547884198e-09
0.06400000000000003;0.0;2.0;-2.0;-7.387975566571022e-11;-0.0001920000048151085;-1.8852126213190698e-11;-1.2553130242719665e-08;0.0;-1.2553130242719665e-08
0.06800000000000003;60075.0;2.0;-2.0;15.018930790789492;-0.0001920000236672347;-5.021252096298716e-11;3754.7326977158427;0.0;3754.7326977158427
0.07200000000000004;101176.0;2.0;60073.0;10.275153815822245;-0.00019200007387975567;20.786130790863375;-1185.9442437418118;0.0;-1185.9442437418118
0.07600000000000004;147733.0;83145.0;18031.0;11.63934842533499;20.785938790789494;-8.77980897496725;341.0486523781864;0.0;341.0486523781864
0.08000000000000004;195373.0;131169.0;16564.0;11.909843871543277;12.006129815822245;1.223362609512746;67.62386155207167;83.33333333333333;-15.709471781261655
0.08400000000000005;242351.0;184086.0;11287.0;11.744473107432798;13.22949242533499;-0.2360965537917128;-41.34269102761978;83.33333333333333;-124.67602436095311
0.08800000000000005;287292.0;236059.0;6292.0;11.23530068281326;12.993395871543278;-0.64489076411048;-127.29310615488431;83.33333333333333;-210.62643948821764
0.09200000000000005;326448.0;285453.0;1839.0;9.789186380686544;12.348505107432798;-0.9366604246195376;-361.52857553167905;83.33333333333333;-444.86190886501237
0.09600000000000006;355097.0;331100.0;-4652.0;7.16215044935043;11.41184468281326;-2.069250302126717;-656.7589828340285;83.33333333333333;-740.0923161673619
0.10000000000000006;369902.0;368470.0;-13373.0;3.7012189835488565;9.342594380686544;-3.464251931336113;-865.2328664503934;83.33333333333333;-948.5661997837268
0.10400000000000006;368253.0;391983.0;-22081.0;-0.4122754418444575;5.878342449350431;-4.296899465801574;-1028.3736063483284;83.33333333333333;-1111.7069396816619
0.10800000000000007;348609.0;398308.0;-30055.0;-4.910845288124701;1.5814429835488566;-4.8789984253933145;-1124.642461570061;83.33333333333333;-1207.9757949033942
0.11200000000000007;312343.0;385118.0;-36509.0;-9.066550894176299;-3.297555441844458;-5.118153846280243;-1038.9264015128995;83.33333333333333;-1122.2597348462327
0.11600000000000008;263312.0;351456.0;-39113.0;-12.25783724032189;-8.4157092881247;-4.405689606051597;-797.8215865363981;-83.33333333333333;-714.4882532030647
0.12000000000000008;206103.0;300171.0;-36859.0;-14.302214235151716;-12.821398894176298;-2.974902346145594;-511.09424870745636;-83.33333333333333;-427.760915374123
0.12400000000000008;145221.0;236986.0;-30883.0;-15.220500685657123;-15.796301240321892;-1.4706809948298236;-229.57161262635185;-166.66666666666666;-62.90494595968518
0.12800000000000009;84920.0;167919.0;-22698.0;-15.075371876570928;-17.266982235151715;-0.13252645050540934;36.28220227154877;-83.33333333333333;119.6155356048821
0.1320000000000001;0.0;98321.0;-13401.0;-21.230010845372266;-17.399508685657125;1.037640809086195;-1538.6597422003344;-166.66666666666666;-1371.993075533668
0.1360000000000001;0.0;32874.0;-32874.0;-1.6229088500790652e-12;-16.36186787657093;-8.024046968801336;5307.502711342661;-83.33333333333333;5390.836044675994
0.1400000000000001;-65267.0;-64669.0;64669.0;-16.316825659007055;-24.385914845372266;30.594138845370644;-4079.206414751358;-83.33333333333333;-3995.873081418025
0.1440000000000001;-100397.0;-39837.0;-25430.0;-8.78266200129774;6.208223999998378;-24.96632965900543;1883.5409144273285;0.0;1883.5409144273285
0.1480000000000001;-127729.0;-114869.0;14472.0;-6.832841661931117;-18.758105659007054;11.364755657709313;487.4550848416559;0.0;487.4550848416559
0.1520000000000001;-148135.0;-144442.0;16713.0;-5.10162607518412;-7.3933500012977404;2.164956339366624;432.80389668674934;-83.33333333333333;516.1372300200827
0.1560000000000001;-162709.0;-165355.0;17220.0;-3.643508196376955;-5.228393661931117;1.7798875867469972;364.52946970179124;-83.33333333333333;447.86280303512456
0.16000000000000011;-172912.0;-179149.0;16440.0;-2.5507354767083807;-3.4485060751841194;1.3832378788071646;273.19317991714354;-83.33333333333333;356.52651325047685
0.16400000000000012;-180371.0;-187410.0;14498.0;-1.8646606205890128;-2.065268196376955;0.906340719668574;171.518714029842;0.0;171.518714029842
0.16800000000000012;-186428.0;-192045.0;11674.0;-1.514331282325515;-1.1589274767083808;0.4149708561193679;87.58233456587445;0.0;87.58233456587445
0.17200000000000013;-191908.0;-195020.0;8592.0;-1.3698354218430975;-0.7439566205890129;0.054457338263497856;36.123965120604396;0.0;36.123965120604396
0.17600000000000013;-197151.0;-197777.0;5869.0;-1.310757448715033;-0.689499282325515;-0.11691213951758239;14.7694932820161;0.0;14.7694932820161
0.18000000000000013;-202193.0;-201002.0;3851.0;-1.2606937740970479;-0.8064114218430974;-0.1346500268719356;12.515918654496305;0.0;12.515918654496305
0.18400000000000014;-206945.0;-204766.0;2573.0;-1.1878238543160975;-0.941061448715033;-0.07262432538201491;18.217479945237592;0.0;18.217479945237592
0.18800000000000014;-211301.0;-208820.0;1875.0;-1.0889888265743977;-1.013685774097048;0.005861919780950409;24.708756935424958;0.0;24.708756935424958
0.19200000000000014;-215191.0;-212851.0;1550.0;-0.9726968236745257;-1.0078238543160976;0.06763502774169994;29.07300072496799;0.0;29.07300072496799
0.19600000000000015;-218584.0;-216611.0;1420.0;-0.8482397290771587;-0.9401888265743976;0.10381200289987191;31.114273649341744;0.0;31.114273649341744
0.20000000000000015;-221470.0;-219956.0;1372.0;-0.7214425015828316;-0.8363768236745257;0.11984909459736692;31.699306873581772;0.0;31.699306873581772
0.20400000000000015;-223849.0;-222822.0;1352.0;-0.5945909750726964;-0.7165277290771588;0.12487722749432717;31.7128816275338;-83.33333333333333;115.04621496086713
0.20800000000000016;-225720.0;-225188.0;1339.0;-0.4679058867242531;-0.5916505015828316;0.12560352651013518;31.671272087110832;-83.33333333333333;115.00460542044416
0.21200000000000016;-227084.0;-227052.0;1332.0;-0.3409469288172544;-0.46604697507269643;0.12601308834844338;31.73973947674967;-166.66666666666666;198.40640614341632
0.21600000000000016;-227938.0;-228412.0;1328.0;-0.21338731183457527;-0.34003388672425305;0.12657495790699863;31.889904245669786;-83.33333333333333;115.22323757900311
0.22000000000000017;-228278.0;-229265.0;1327.0;-0.08522744974227997;-0.21345892881725442;0.12746361698267916;32.039965523073825;-166.66666666666666;198.70663218974047
0.22400000000000017;-228105.0;-229608.0;1330.0;0.04328292663848495;-0.08599531183457526;0.1284478620922953;32.12759409519123;-83.33333333333333;115.46092742852456
0.22800000000000017;-227418.0;-229439.0;1334.0;0.1717890704448648;0.042452550257720045;0.12889437638076492;32.12653595159496;-83.33333333333333;115.45986928492829
0.23200000000000018;-226218.0;-228754.0;1336.0;0.29993202983193296;0.17134692663848497;0.12869814380637987;32.03573984676704;0.0;32.03573984676704
0.23600000000000018;-224509.0;-227554.0;1336.0;0.4273868105074925;0.30004507044486484;0.1281429593870681;31.863695168889887;0.0;31.863695168889887
0.24000000000000019;-222293.0;-225842.0;1333.0;0.5538601930060989;0.42818802983193294;0.12716678067555953;31.6183456246516;0.0;31.6183456246516
0.2440000000000002;-219577.0;-223621.0;1328.0;0.6790752918033425;0.5553548105074925;0.12599338249860648;31.303774699310893;0.0;31.303774699310893
0.2480000000000002;-216366.0;-220896.0;1319.0;0.8027590896206336;0.681348193006099;0.1243510987972436;30.920949454322777;0.0;30.920949454322777
0.25200000000000017;-212668.0;-217674.0;1308.0;0.9246375438818949;0.8056992918033425;0.12262779781729105;30.469613565315328;83.33333333333333;-52.863719768018
0.25600000000000017;-208490.0;-213961.0;1293.0;1.0444363329228339;0.9283270896206336;0.12043845426126121;29.949697260234746;166.66666666666666;-136.7169694064319
0.2600000000000002;-203842.0;-209766.0;1276.0;1.1618837525511412;1.0487655438818948;0.11816678904093902;29.36185490707682;166.66666666666666;-137.30481175958982
0.2640000000000002;-198735.0;-205099.0;1257.0;1.2767133412676859;1.1669323329228338;0.11562341962830747;28.707397179136173;166.66666666666666;-137.9592694875305
0.2680000000000002;-193181.0;-199969.0;1234.0;1.3886653897098495;1.2825557525511413;0.11262158871654449;27.988012110540915;83.33333333333333;-55.345321222792414
0.2720000000000002;-187191.0;-194389.0;1208.0;1.4974875219031185;1.3951773412676858;0.10945604844216383;27.205533048317243;83.33333333333333;-56.127800285016086
0.2760000000000002;-180779.0;-188371.0;1180.0;1.6029348647229558;1.5046333897098496;0.10613413219326895;26.36183570495931;83.33333333333333;-56.97149762837402
0.2800000000000002;-173910.0;-181928.0;1149.0;1.7172824509191977;1.6107675219031186;0.10247134281983716;28.58689654906049;83.33333333333333;-54.74643678427284
0.2840000000000002;-166414.0;-175076.0;1166.0;1.8739341174456674;1.7132388647229557;0.11597958619624205;39.16291663161742;83.33333333333333;-44.17041670171591
0.2880000000000002;-158044.0;-167760.0;1346.0;2.092510287866771;1.8292184509191978;0.1739316665264694;54.64404260527594;0.0;54.64404260527594
0.2920000000000002;-148460.0;-159748.0;1704.0;2.396047618760241;2.003150117445667;0.2529441704211042;75.88433272336748;0.0;75.88433272336748
0.2960000000000002;-137009.0;-150724.0;2264.0;2.8627567768114672;2.2560942878667714;0.35729733089346993;116.67728951280654;0.0;116.67728951280654
0.3000000000000002;-122913.0;-140271.0;3262.0;3.523974916126126;2.6133916187602413;0.562517158051226;165.30453482866469;0.0;165.30453482866469
0.3040000000000002;-105825.0;-127568.0;4655.0;4.271962194675951;3.1759087768114673;0.7949461393146589;186.9968196374563;0.0;186.9968196374563
0.3080000000000002;-86011.0;-111685.0;5860.0;4.953470449221391;3.970854916126126;0.8636672785498254;170.37706363635996;0.0;170.37706363635996
0.3120000000000002;-64124.0;-92347.0;6336.0;5.47180844482348;4.834522194675952;0.7272042545454394;129.58449890052214;0.0;129.58449890052214
0.3160000000000002;0.0;-70101.0;5977.0;16.031136490030484;5.561726449221391;0.48387399560208877;2639.832011301751;83.33333333333333;2556.4986779684177
0.32000000000000023;0.0;-45919.0;45919.0;-1.5621696428068356e-21;6.04560044482348;14.393760045207005;-4007.784122507621;83.33333333333333;-4091.1174558409543
0.32400000000000023;0.0;35838.0;-35838.0;-1.2747304285303778e-21;20.439360490030484;-23.879808490030484;7.185980356911445e-20;83.33333333333333;-83.33333333333333
0.32800000000000024;61599.0;22077.0;-22077.0;15.399855482151562;-3.440448;1.321056;3849.9638705378907;0.0;3849.9638705378907
0.33200000000000024;111254.0;13600.0;47999.0;12.41372924310683;-2.119392;22.127151482151564;-746.5315597611828;0.0;-746.5315597611828
0.33600000000000024;169874.0;93631.0;17623.0;14.654954893401987;20.007759482151563;-5.9022222390447325;560.3064125737891;83.33333333333333;476.9730792404558
0.34000000000000025;234995.0;150053.0;19821.0;16.28020844706246;14.10553724310683;2.452233650295156;406.3133884151182;83.33333333333333;322.9800550817849
0.34400000000000025;299998.0;216284.0;18711.0;16.250965315753184;16.557770893401987;1.5186935536604729;-7.310782827318896;166.66666666666666;-173.97744949398555
0.34800000000000025;357133.0;288589.0;11409.0;14.283771346458737;18.07646444706246;-0.730235131309275;-491.7984923236118;166.66666666666666;-658.4651589902785
0.35200000000000026;400551.0;357973.0;-840.0;10.854352385319078;17.346229315753185;-3.1430979692944483;-857.3547402849147;166.66666666666666;-1024.0214069515814
0.35600000000000026;425261.0;414785.0;-14234.0;6.177625112788417;14.203131346458736;-4.7152429611396585;-1169.1818181326655;166.66666666666666;-1335.848484799332
0.36000000000000026;427847.0;452736.0;-27475.0;0.6463434724347593;9.487888385319078;-5.947863272530661;-1382.8204100884143;83.33333333333333;-1466.1537434217478
0.36400000000000027;409058.0;466896.0;-39049.0;-4.697079660599356;3.540025112788417;-6.642385640353657;-1335.8557832585288;83.33333333333333;-1419.189116591862
0.36800000000000027;372281.0;454487.0;-45429.0;-9.194414604147479;-3.102360527565241;-5.955903133034115;-1124.3337358870306;0.0;-1124.3337358870306
0.3720000000000003;319899.0;418254.0;-45973.0;-13.095550138166951;-9.058263660599355;-4.549558943548124;-975.2838835048681;0.0;-975.2838835048681
0.3760000000000003;265468.0;363823.0;-43924.0;-13.095550138166951;-13.60782260414748;-3.70443153401947;0.0;-83.33333333333333;83.33333333333333
0.3800000000000003;363823.0;363823.0;0.0;0.0;0.0;-17.31225413816695;3273.8875345417378;-83.33333333333333;3357.2208678750712
0.3840000000000003;363823.0;363823.0;0.0;0.0;0.0;-17.31225413816695;0.0;-83.33333333333333;83.33333333333333
0.3880000000000003;363823.0;363823.0;0.0;0.0;0.0;-17.31225413816695;0.0;0.0;0.0
0.3920000000000003;363823.0;363823.0;0.0;0.0;0.0;-17.31225413816695;0.0;0.0;0.0
0.3960000000000003;363823.0;363823.0;0.0;0.0;0.0;-17.31225413816695;0.0;0.0;0.0
0.4000000000000003;363823.0;363823.0;0.0;0.0;0.0;-17.31225413816695;0.0;0.0;0.0
0.4040000000000003;363823.0;363823.0;0.0;0.0;0.0;-17.31225413816695;0.0;0.0;0.0
0.4080000000000003;363823.0;363823.0;0.0;0.0;0.0;-17.31225413816695;0.0;0.0;0.0
0.4120000000000003;363823.0;363823.0;0.0;0.0;0.0;-17.31225413816695;0.0;0.0;0.0
0.4160000000000003;363823.0;363823.0;0.0;0.0;0.0;-17.31225413816695;0.0;0.0;0.0
0.4200000000000003;363823.0;363823.0;0.0;0.0;0.0;-17.31225413816695;0.0;0.0;0.0
0.4240000000000003;363823.0;363823.0;0.0;0.0;0.0;-17.31225413816695;0.0;0.0;0.0
0.4280000000000003;363823.0;363823.0;0.0;0.0;0.0;-17.31225413816695;0.0;-83.33333333333333;83.33333333333333
0.43200000000000033;363823.0;363823.0;0.0;0.0;0.0;-17.31225413816695;0.0;-83.33333333333333;83.33333333333333
0.43600000000000033;363823.0;363823.0;0.0;0.0;0.0;-17.31225413816695;0.0;-83.33333333333333;83.33333333333333
0.44000000000000034;363823.0;363823.0;0.0;0.0;0.0;-17.31225413816695;0.0;0.0;0.0
0.44400000000000034;363823.0;363823.0;0.0;0.0;0.0;-17.31225413816695;0.0;0.0;0.0
0.44800000000000034;363823.0;363823.0;0.0;0.0;0.0;-17.31225413816695;0.0;0.0;0.0
0.45200000000000035;363823.0;363823.0;0.0;0.0;0.0;-17.31225413816695;0.0;-83.33333333333333;83.33333333333333
0.45600000000000035;363823.0;363823.0;0.0;0.0;0.0;-17.31225413816695;0.0;-83.33333333333333;83.33333333333333
0.46000000000000035;363823.0;363823.0;0.0;0.0;0.0;-17.31225413816695;0.0;-83.33333333333333;83.33333333333333
0.46400000000000036;363823.0;363823.0;0.0;0.0;0.0;-17.31225413816695;0.0;0.0;0.0
0.46800000000000036;363823.0;363823.0;0.0;0.0;0.0;-17.31225413816695;0.0;-83.33333333333333;83.33333333333333
0.47200000000000036;363823.0;363823.0;0.0;0.0;0.0;-17.31225413816695;0.0;-83.33333333333333;83.33333333333333
0.47600000000000037;363823.0;363823.0;0.0;0.0;0.0;-17.31225413816695;0.0;-166.66666666666666;166.66666666666666
0.48000000000000037;363823.0;363823.0;0.0;0.0;0.0;-17.31225413816695;0.0;-83.33333333333333;83.33333333333333
0.4840000000000004;363823.0;363823.0;0.0;0.0;0.0;-17.31225413816695;0.0;-83.33333333333333;83.33333333333333
0.4880000000000004;363823.0;363823.0;0.0;0.0;0.0;-17.31225413816695;0.0;0.0;0.0
0.4920000000000004;363823.0;363823.0;0.0;0.0;0.0;-17.31225413816695;0.0;0.0;0.0
0.4960000000000004;363823.0;363823.0;0.0;0.0;0.0;-17.31225413816695;0.0;0.0;0.0
0.5000000000000003;363823.0;363823.0;0.0;0.0;0.0;-17.31225413816695;0.0;0.0;0.0
0.5040000000000003;363823.0;363823.0;0.0;0.0;0.0;-17.31225413816695;0.0;0.0;0.0
0.5080000000000003;363823.0;363823.0;0.0;0.0;0.0;-17.31225413816695;0.0;0.0;0.0
0.5120000000000003;363823.0;363823.0;0.0;0.0;0.0;-17.31225413816695;0.0;0.0;0.0
0.5160000000000003;363823.0;363823.0;0.0;0.0;0.0;-17.31225413816695;0.0;0.0;0.0
0.5200000000000004;363823.0;363823.0;0.0;0.0;0.0;-17.31225413816695;0.0;0.0;0.0
0.5240000000000004;363823.0;363823.0;0.0;0.0;0.0;-17.31225413816695;0.0;0.0;0.0
0.5280000000000004;363823.0;363823.0;0.0;0.0;0.0;-17.31225413816695;0.0;0.0;0.0
0.5320000000000004;363823.0;363823.0;0.0;0.0;0.0;-17.31225413816695;0.0;0.0;0.0
0.5360000000000004;363823.0;363823.0;0.0;0.0;0.0;-17.31225413816695;0.0;0.0;0.0
0.5400000000000004;363823.0;363823.0;0.0;0.0;0.0;-17.31225413816695;0.0;0.0;0.0
0.5440000000000004;363823.0;363823.0;0.0;0.0;0.0;-17.31225413816695;0.0;0.0;0.0
0.5480000000000004;363823.0;363823.0;0.0;0.0;0.0;-17.31225413816695;0.0;0.0;0.0
0.5520000000000004;363823.0;363823.0;0.0;0.0;0.0;-17.31225413816695;0.0;0.0;0.0
0.5560000000000004;363823.0;363823.0;0.0;0.0;0.0;-17.31225413816695;0.0;0.0;0.0
0.5600000000000004;363823.0;363823.0;0.0;0.0;0.0;-17.31225413816695;0.0;0.0;0.0
0.5640000000000004;363823.0;363823.0;0.0;0.0;0.0;-17.31225413816695;0.0;0.0;0.0
0.5680000000000004;363823.0;363823.0;0.0;0.0;0.0;-17.31225413816695;0.0;0.0;0.0
0.5720000000000004;363823.0;363823.0;0.0;0.0;0.0;-17.31225413816695;0.0;0.0;0.0
0.5760000000000004;363823.0;363823.0;0.0;0.0;0.0;-17.31225413816695;0.0;0.0;0.0
0.5800000000000004;363823.0;363823.0;0.0;0.0;0.0;-17.31225413816695;0.0;0.0;0.0
0.5840000000000004;363823.0;363823.0;0.0;0.0;0.0;-17.31225413816695;0.0;0.0;0.0
0.5880000000000004;363823.0;363823.0;0.0;0.0;0.0;-17.31225413816695;0.0;0.0;0.0
0.5920000000000004;363823.0;363823.0;0.0;0.0;0.0;-17.31225413816695;0.0;0.0;0.0
0.5960000000000004;363823.0;363823.0;0.0;0.0;0.0;-17.31225413816695;0.0;0.0;0.0
0.6000000000000004;363823.0;363823.0;0.0;0.0;0.0;-17.31225413816695;0.0;0.0;0.0
0.6040000000000004;363823.0;363823.0;0.0;0.0;0.0;-17.31225413816695;0.0;0.0;0.0
0.6080000000000004;363823.0;363823.0;0.0;0.0;0.0;-17.31225413816695;0.0;0.0;0.0
0.6120000000000004;363823.0;363823.0;0.0;0.0;0.0;-17.31225413816695;0.0;0.0;0.0
0.6160000000000004;363823.0;363823.0;0.0;0.0;0.0;-17.31225413816695;0.0;0.0;0.0
0.6200000000000004;363823.0;363823.0;0.0;0.0;0.0;-17.31225413816695;0.0;0.0;0.0
0.6240000000000004;363823.0;363823.0;0.0;0.0;0.0;-17.31225413816695;0.0;0.0;0.0
0.6280000000000004;363823.0;363823.0;0.0;0.0;0.0;-17.31225413816695;0.0;0.0;0.0
0.6320000000000005;363823.0;363823.0;0.0;0.0;0.0;-17.31225413816695;0.0;0.0;0.0
0.6360000000000005;363823.0;363823.0;0.0;0.0;0.0;-17.31225413816695;0.0;0.0;0.0
0.6400000000000005;363823.0;363823.0;0.0;0.0;0.0;-17.31225413816695;0.0;0.0;0.0
0.6440000000000005;363823.0;363823.0;0.0;0.0;0.0;-17.31225413816695;0.0;0.0;0.0
0.6480000000000005;363823.0;363823.0;0.0;0.0;0.0;-17.31225413816695;0.0;0.0;0.0
0.6520000000000005;363823.0;363823.0;0.0;0.0;0.0;-17.31225413816695;0.0;0.0;0.0
0.6560000000000005;363823.0;363823.0;0.0;0.0;0.0;-17.31225413816695;0.0;0.0;0.0
0.6600000000000005;363823.0;363823.0;0.0;0.0;0.0;-17.31225413816695;0.0;0.0;0.0
0.6640000000000005;363823.0;363823.0;0.0;0.0;0.0;-17.31225413816695;0.0;0.0;0.0
0.6680000000000005;363823.0;363823.0;0.0;0.0;0.0;-17.31225413816695;0.0;0.0;0.0
0.6720000000000005;363823.0;363823.0;0.0;0.0;0.0;-17.31225413816695;0.0;0.0;0.0
0.6760000000000005;363823.0;363823.0;0.0;0.0;0.0;-17.31225413816695;0.0;0.0;0.0
0.6800000000000005;363823.0;363823.0;0.0;0.0;0.0;-17.31225413816695;0.0;0.0;0.0
