Zeit[sec];Sollposition[°];Istposition[°];Positionsschleppfehler[°];Sollgeschwindigkeit[°/s];Istgeschwindigkeit[°/s];Geschwindigkeitsdifferenz[°/s];Sollbeschleunigung[°/s*s];Istbeschleunigung[°/s*s];Beschleunigungsdifferenz[°/s*s]
0.0;0.0;-10986.0;10986.0;-2.661963605267935e-33;-0.4645221593855848;1.5191781593855849;-4.037107729840226e-30;0.0;-4.037107729840226e-30
0.004;0.0;-16479.0;16479.0;-8.253666104992133e-33;-3.172915156989921;4.7548991569899215;-1.3979256249310493e-30;0.0;-1.3979256249310493e-30
0.008;0.0;-10986.0;10986.0;-7.368297076094041e-33;-1.5179682455728707;2.5726242455728707;2.2134225722452285e-31;0.0;2.2134225722452285e-31
0.012;0.0;-5493.0;5493.0;-4.196009132511763e-33;0.2652939866389433;0.2620340133610567;7.930719858955696e-31;0.0;7.930719858955696e-31
0.016;0.0;-16479.0;16479.0;-1.3225927593646193e-33;-4.680662126763503;6.262646126763503;7.183540932867859e-31;0.0;7.183540932867859e-31
0.02;0.0;-5493.0;5493.0;3.2475346058013336e-34;1.267108897385131;-0.739780897385131;4.118365549861882e-31;0.0;4.118365549861882e-31
0.024;0.0;-5493.0;5493.0;8.479095075858624e-34;0.20579183473481072;0.3215361652651893;1.3078901175143224e-31;0.0;1.3078901175143224e-31
0.028;0.0;-5493.0;5493.0;7.225483747658031e-34;0.9851834988386176;-0.45785549883861754;-3.134028320501481e-32;0.0;-3.134028320501481e-32
0.032;0.0;-5493.0;5493.0;3.894526355414515e-34;0.7981010266747697;-0.27077302667476966;-8.32739348060879e-32;0.0;-8.32739348060879e-32
0.036000000000000004;0.0;-5493.0;5493.0;1.0438715184818981e-34;0.3433091095442211;0.1840188904557789;-7.126637092331542e-32;0.0;-7.126637092331542e-32
0.04000000000000001;0.0;-5493.0;5493.0;-4.995828650495515e-35;1.762910371906616;-1.235582371906616;-3.858635958828624e-32;0.0;-3.858635958828624e-32
0.04400000000000001;0.0;-10986.0;10986.0;-9.188207662637297e-35;-1.6495379843511975;2.7041939843511975;-1.0480947530354455e-32;0.0;-1.0480947530354455e-32
0.048000000000000015;-415.0;-10986.0;10986.0;-0.10377608853343652;-2.004048781882344;3.058704781882344;-25.94402213335913;0.0;-25.94402213335913
0.05200000000000002;-4551.0;-10986.0;10822.0;-1.0341985506428526;-3.0719963078527806;4.069762710250656;-232.60561552735402;0.0;-232.60561552735402
0.05600000000000002;-176400.0;-5493.0;3441.0;-42.96224487366018;0.007864997161977144;-0.14959499105207602;-10482.011580754332;0.0;-10482.011580754332
0.060000000000000026;-509707.0;-5493.0;-67169.0;-83.3267702155759;0.2683827482910143;-24.36916884617252;-10091.13133547893;0.0;-10091.13133547893
0.06400000000000003;-1138672.0;-16479.0;-291065.0;-157.2412447128602;-2.5070821986995018;-84.15563413089785;-18478.618624321076;-83.33333333333333;-18395.285290987744
0.06800000000000003;-2071245.0;-49438.0;-707691.0;-233.14309690981364;-9.563223590235442;-170.77130595917438;-18975.46304923836;-416.6666666666667;-18558.79638257169
0.07200000000000004;-3305771.0;-203247.0;-1301490.0;-308.63157401170776;-39.43039232447663;-272.41469819402744;-18872.11927547353;-1833.3333333333333;-17038.785942140195
0.07600000000000004;-4901802.0;-538330.0;-2016921.0;-399.00774975157566;-93.26753777801139;-362.985239380032;-22594.043934966976;-4583.333333333333;-18010.710601633644
0.08000000000000004;-6993803.0;-1796265.0;-2135074.0;-523.0002541543181;-326.6182209513838;-222.37088331791676;-30998.12610068561;-15333.333333333334;-15664.792767352275
0.08400000000000005;-9712137.0;-3416748.0;-2305148.0;-679.5832512349746;-397.71936790861514;-271.21413255104073;-39145.74927016412;-29916.666666666668;-9229.082603497449
0.08800000000000005;-13149443.0;-5350342.0;-2708980.0;-859.3264815451197;-507.4150871736562;-337.00344013332784;-44935.80757753628;-31000.0;-13935.807577536281
0.09200000000000005;-17376368.0;-8278198.0;-2780849.0;-1056.7313661071817;-738.0750262182053;-278.81763284824876;-49351.22114051549;-35166.666666666664;-14184.554473848828
0.09600000000000006;-22452508.0;-11942139.0;-2863073.0;-1269.0349062622422;-916.9019183867231;-294.49434044583427;-53075.88503876513;-37666.666666666664;-15409.218372098472
0.10000000000000006;-28409104.0;-16336670.0;-3027541.0;-1489.148960328657;-1111.7636740173366;-318.629995273031;-55028.51351660371;-47916.666666666664;-7111.846849937045
0.10400000000000006;-35252337.0;-21621094.0;-3163368.0;-1710.8079949137946;-1326.9422933909736;-331.80375797091097;-55414.75864628438;-50333.333333333336;-5081.425312951047
0.10800000000000007;-42978500.0;-27822876.0;-3264561.0;-1931.5407385417593;-1565.7798070776248;-323.36162225607814;-55183.18590699119;-49833.333333333336;-5349.852573657849
0.11200000000000007;-51561957.0;-35134277.0;-3141266.0;-2145.864173528119;-1821.4643385895336;-277.1234928178576;-53580.85874658991;-58333.333333333336;4752.474586743425
0.11600000000000008;-60950525.0;-43406982.0;-2929454.0;-2347.1418746848262;-2085.95574698606;-210.49511280442357;-50319.42528917682;-60416.666666666664;10097.241377489845
0.12000000000000008;-71080178.0;-52723389.0;-2510695.0;-2532.413004490313;-2324.4035626770324;-141.03499301876627;-46317.78245137173;-65166.666666666664;18848.884215294936
0.12400000000000008;-81879819.0;-62451782.0;-2459981.0;-2699.9102393625176;-2448.0503537446043;-207.52744351647834;-41874.308718051114;-56416.666666666664;14542.357948615554
0.12800000000000009;-93266085.0;-72828369.0;-2474344.0;-2846.5663586588485;-2588.967603374883;-246.3068885717612;-36664.02982408272;-48666.666666666664;12002.636842583946
0.1320000000000001;-105147187.0;-83847656.0;-2483360.0;-2970.275472360626;-2760.8535428418877;-234.62468720918105;-30927.278425444343;-38000.0;7072.721574555658
0.1360000000000001;-117435384.0;-95416260.0;-2493780.0;-3072.0489376169244;-2915.1245324773618;-219.03412361033816;-25443.366314074636;-36583.333333333336;11139.967019258698
0.1400000000000001;-130046548.0;-107578125.0;-2371524.0;-3152.790927348163;-3034.3345685075024;-203.2339385287546;-20185.497432809712;-38416.666666666664;18231.169233856952
0.1440000000000001;-142900844.0;-120025635.0;-2337877.0;-3213.5737549276023;-3112.276731216256;-215.62500683752705;-15195.706894859768;-33833.333333333336;18637.62643847357
0.1480000000000001;-155939630.0;-132994995.0;-2074187.0;-3259.6964042471222;-3240.3336659116185;-135.20555724402766;-11530.662329879988;-29666.666666666668;18136.004336786682
0.1520000000000001;-169124408.0;-146002808.0;-1992393.0;-3296.1944779199575;-3248.662752945572;-174.11149039047723;-9124.518418208823;-22583.333333333332;13458.814915124509
0.1560000000000001;-182417574.0;-158884277.0;-2206512.0;-3323.2912281960976;-3229.786593971256;-255.93562830638575;-6774.187569035007;-13166.666666666666;6392.479097631659
0.16000000000000011;-195777953.0;-172172241.0;-2145445.0;-3340.0946581141275;-3307.005991887113;-205.68078823018232;-4200.8574795074765;-8500.0;4299.1425204925235
0.16400000000000012;-209169531.0;-185333862.0;-2303004.0;-3347.8941580066157;-3283.6887266652584;-267.1944129185972;-1949.8749731220641;-4166.666666666667;2216.791693544603
0.16800000000000012;-222568064.0;-198731689.0;-2277532.0;-3349.6330865387936;-3357.9103281546913;-203.8213242024467;-434.7321330444629;-6083.333333333333;5648.60120028887
0.17200000000000013;-235961685.0;-212338257.0;-2065117.0;-3348.4051343455963;-3388.8626941722655;-157.92645363192014;306.98804829933124;-9333.333333333334;9640.321381632664
0.17600000000000013;-249347505.0;-225763550.0;-2036368.0;-3346.4548082468104;-3372.886838576862;-171.74052306971225;487.5815246964521;-5333.333333333333;5820.914858029785
0.18000000000000013;-262727221.0;-239474487.0;-1715988.0;-3344.928930442553;-3409.068711636251;-103.3051919173995;381.46945106439034;-8166.666666666667;8548.136117731057
0.18400000000000014;-276103727.0;-252877808.0;-1696113.0;-3344.1262599477263;-3329.952047433854;-178.7360497973914;200.66762370663582;-666.6666666666666;867.3342903733025
0.18800000000000014;-289479318.0;-266330566.0;-1621834.0;-3343.8976154491206;-3376.4246866366157;-123.89100218672047;57.16112465142942;3250.0;-3192.8388753485706
0.19200000000000014;-302855202.0;-279860229.0;-1468333.0;-3343.970902999127;-3377.860225980362;-107.14005114366319;-18.321887501542733;1833.3333333333333;-1851.655220834876
0.19600000000000015;-316231711.0;-293104248.0;-1600026.0;-3344.1272271352163;-3330.103613280866;-167.4268952505745;-39.08103402238794;4750.0;-4789.081034022388
0.20000000000000015;-329608717.0;-306688843.0;-1391561.0;-3344.2512178068864;-3401.5187690356947;-76.10354062159104;-30.9976679175179;-1833.3333333333333;1802.3356654158154
0.20400000000000015;-342985965.0;-320191040.0;-1266067.0;-3344.3118418149047;-3370.0801563275772;-95.63774720986748;-15.156002004573566;-1333.3333333333333;1318.1773313287597
0.20800000000000016;-356363256.0;-333660278.0;-1173927.0;-3344.3226903045343;-3371.331407158618;-85.64011261235737;-2.712122407388051;-1750.0;1747.287877592612
0.21200000000000016;-369740494.0;-347178955.0;-1032515.0;-3344.3092463437074;-3380.982407758345;-62.45482009438729;3.3609902067155417;-1583.3333333333333;1586.6943235400488
0.21600000000000016;-383117661.0;-360499878.0;-1088861.0;-3344.291475287687;-3344.8480419632815;-103.99991045547495;4.442764005148092;4000.0;-3995.557235994852
0.22000000000000017;-396494778.0;-373809814.0;-1156135.0;-3344.279184008452;-3341.4409003516703;-113.85033881920344;3.0728198087217606;2583.3333333333335;-2580.2605135246117
0.22400000000000017;-409871875.0;-387169189.0;-1173908.0;-3344.2742126800626;-3344.002600495703;-112.9792736190966;1.2428320973185691;2833.3333333333335;-2832.090501236015
0.22800000000000017;-423248974.0;-400770264.0;-949942.0;-3344.2744605657226;-3391.6924679667827;-43.779249006855025;-0.06197141499342251;-1833.3333333333333;1833.2713619183398
0.23200000000000018;-436626083.0;-414387817.0;-709487.0;-3344.277053518708;-3391.446691856101;-20.938400235626887;-0.6482382462991154;-6333.333333333333;6332.685095087034
0.23600000000000018;-450003203.0;-427890015.0;-584392.0;-3344.2799222921244;-3377.7816913319484;-22.595427846666553;-0.7171933541485487;-3750.0;3749.2828066458515
0.24000000000000019;-463380332.0;-441331787.0;-519733.0;-3344.2821244688307;-3373.987746145515;-20.184797603946663;-0.5505441765762953;750.0;-750.5505441765763
0.2440000000000002;-476757467.0;-454729614.0;-499030.0;-3344.2835356945993;-3364.462322866185;-27.725335745371922;-0.3528064421516319;4333.333333333333;-4333.686139775485
0.2480000000000002;-490134605.0;-468193359.0;-412416.0;-3344.284407758033;-3355.9081571510224;-27.96644994339249;-0.21801585842240456;1083.3333333333333;-1083.5513491917557
0.25200000000000017;-503511746.0;-481629639.0;-353273.0;-3344.2850451699187;-3348.068982641631;-30.129098543583495;-0.15935297142277705;166.66666666666666;-166.82601963808943
0.25600000000000017;-516888889.0;-495274658.0;-85393.0;-3344.2856550713536;-3394.6009778726643;42.11859450052725;-0.1524753587318628;-2416.6666666666665;2416.5141913079347
0.2600000000000002;-530266035.0;-508688965.0;-48228.0;-3344.2863249969955;-3346.7346034051084;-2.1805678463606455;-0.16748141047173704;-1166.6666666666667;1166.499185256195
0.2640000000000002;-543643184.0;-521971436.0;-142901.0;-3344.2870605093385;-3352.8118575079056;-5.192555604845438;-0.18387808574971132;3750.0;-3750.1838780857497
0.2680000000000002;-557020336.0;-535429688.0;-61796.0;-3344.2878321659646;-3361.1500062214636;10.930977530661949;-0.1929141565142345;2000.0;-2000.1929141565142
0.2720000000000002;-570397491.0;-548541870.0;-326764.0;-3344.288607944149;-3281.4087986958493;-94.24790745363998;-0.1939445461403011;5166.666666666667;-5166.860611212807
0.2760000000000002;-583774649.0;-561923218.0;-322569.0;-3344.289367221557;-3342.232683861048;-33.022075367414345;-0.18981935193096433;1083.3333333333333;-1083.5231526852642
0.2800000000000002;-597151810.0;-575447388.0;-175555.0;-3344.2901019299024;-3359.8573192291738;-1.284865211023316;-0.18367708639743796;-1416.6666666666667;1416.4829895802693
0.2840000000000002;-610528974.0;-588801270.0;-198833.0;-3344.290812126082;-3362.8049138156302;-0.5727082574139786;-0.17754904490629997;-1416.6666666666667;1416.4891176217604
0.2880000000000002;-623906141.0;-602347412.0;-29853.0;-3344.2915010531256;-3390.6118992135043;43.455632006851374;-0.172231760871;-5583.333333333333;5583.161101572462
0.2920000000000002;-637283310.0;-615547485.0;-206945.0;-3344.2921719200804;-3294.6528705226788;-69.50493059090195;-0.1677167387015288;1833.3333333333333;-1833.5010500720348
0.2960000000000002;-650660482.0;-629000244.0;-131354.0;-3344.292826626815;-3353.8898280638996;-3.011918940798296;-0.16367668365546706;1333.3333333333333;-1333.4970100169887
0.3000000000000002;-664037657.0;-642343140.0;-165628.0;-3344.293465762418;-3329.7677851591498;-30.424930411063542;-0.1597839006990398;1500.0;-1500.159783900699
0.3040000000000002;-677414834.0;-655598145.0;-287796.0;-3344.294089115355;-3338.147286163176;-33.77420603474593;-0.15583823426368326;3916.6666666666665;-3916.82250490093
0.3080000000000002;-690792013.0;-669155273.0;-107844.0;-3344.2946961900093;-3387.8315331519148;33.184799984729125;-0.15176866361343855;-3166.6666666666665;3166.514898003053
0.3120000000000002;-704169195.0;-682377319.0;-262976.0;-3344.2952865243697;-3305.6675110632973;-63.87251109521185;-0.14758359009192645;-333.3333333333333;333.1857497432414
0.3160000000000002;-717546379.0;-695753174.0;-264301.0;-3344.2958598053924;-3338.17489958574;-31.492923105545742;-0.14332025568819518;-1083.3333333333333;1083.190013077645
0.32000000000000023;-730923565.0;-709216919.0;-177738.0;-3344.2964158554028;-3339.7777484713697;-21.58060989098385;-0.13901250258641085;-250.0;249.8609874974136
0.32400000000000023;-744300754.0;-722433472.0;-338370.0;-3344.296954576785;-3311.1148362510944;-65.6647606603783;-0.13468034558172803;3000.0;-3000.1346803455817
0.32800000000000024;-757677944.0;-735726929.0;-422100.0;-3344.2974758967666;-3342.3964939952825;-42.42173219663846;-0.13032999538609147;1250.0;-1250.130329995386
0.33200000000000024;-771055137.0;-749130249.0;-395970.0;-3344.2979797373614;-3356.8361137042825;-25.474164411153197;-0.1259601486935935;1666.6666666666667;-1666.7926268153603
0.33600000000000024;-784432331.0;-762676392.0;-227018.0;-3344.298466005194;-3370.982592201927;4.891191594847442;-0.12156695811427198;-5083.333333333333;5083.211766375219
0.34000000000000025;-797809528.0;-776178589.0;-102014.0;-3344.298934592911;-3364.842580728035;10.751067145263278;-0.11714692925579584;-6000.0;5999.882853070744
0.34400000000000025;-811186726.0;-789702759.0;44960.0;-3344.299385387947;-3374.373387673136;34.39089872946124;-0.11269875903963111;-2500.0;2499.8873012409604
0.34800000000000025;-824563926.0;-803084106.0;49110.0;-3344.29981827538;-3343.9829646952826;4.398414114809384;-0.1082218582268979;1416.6666666666667;-1416.7748885248936
0.35200000000000026;-837941127.0;-816399536.0;-12659.0;-3344.3002331423922;-3353.002224912906;7.487406533228295;-0.103716753073968;4666.666666666667;-4666.770383419741
0.35600000000000026;-851318330.0;-829874268.0;84873.0;-3344.300629878868;-3366.5237103794902;30.371538152264293;-0.09918411899434432;1000.0;-1000.0991841189943
0.36000000000000026;-864695535.0;-843266602.0;100005.0;-3344.301008377109;-3339.684806167818;4.984898156465988;-0.09462456023356935;250.0;-250.09462456023357
0.36400000000000027;-878072741.0;-856840210.0;296409.0;-3344.3013685318356;-3375.618410958034;59.77289733516227;-0.09003868160561979;-4250.0;4249.909961318394
0.36800000000000027;-891449949.0;-870227051.0;306045.0;-3344.3017102374233;-3342.351315903718;27.43048694865456;-0.08542639693587262;-416.6666666666667;416.5812402697308
0.3720000000000003;-904827157.0;-883509521.0;211308.0;-3344.3020333906334;-3342.4616997052426;18.44576580277544;-0.0807883025117917;3666.6666666666665;-3666.7474549691783
0.3760000000000003;-918204367.0;-896824951.0;149530.0;-3344.3023378883536;-3318.0445610531697;-11.902395307273764;-0.07612443005200475;2333.3333333333335;-2333.4094577633855
0.3800000000000003;-931581579.0;-909915161.0;-137469.0;-3344.3026236287596;-3277.9217769768215;-79.57739924891985;-0.07143510151763621;6083.333333333333;-6083.404768434851
0.3840000000000003;-944958791.0;-923433838.0;3998.0;-3344.302890511;-3379.704559677655;35.78591828186791;-0.06672056008483196;-83.33333333333333;83.2666127732485
0.3880000000000003;-958336004.0;-936831665.0;24613.0;-3344.303138435324;-3324.135669138145;-17.80421063100266;-0.06198108098942612;-3500.0;3499.9380189190106
0.3920000000000003;-971713218.0;-950152588.0;-31677.0;-3344.3033673027953;-3351.106600195839;3.7626209504651342;-0.05721686784454505;-1500.0;1499.9427831321555
0.3960000000000003;-985090433.0;-963687744.0;126266.0;-3344.3035770163633;-3379.92238163053;47.74068990552132;-0.05242839199581795;-4333.333333333333;4333.280904941337
0.4000000000000003;-998467649.0;-976832886.0;-105807.0;-3344.303767479826;-3290.087907470645;-64.37301363930055;-0.047615865696570836;4000.0;-4000.0476158656966
0.4040000000000003;-1011844865.0;-990258179.0;-57729.0;-3344.303938597954;-3348.6950657630377;-1.1505695403125173;-0.042779532009262766;-500.0;499.95722046799074
0.4080000000000003;-1025222082.0;-1003705444.0;12320.0;-3344.304090277624;-3345.3935158368763;2.2724016273905363;-0.037919917417639226;333.3333333333333;-333.37125325075095
0.4120000000000003;-1038599300.0;-1017031860.0;-38480.0;-3344.3042224261485;-3349.1439035088383;1.145825774890909;-0.033037131174751266;750.0;-750.0330371311748
0.4160000000000003;-1051976518.0;-1030429688.0;-17870.0;-3344.3043349526033;-3348.723407814084;2.703746030383627;-0.02813161370340822;-2583.3333333333335;2583.30520171963
0.4200000000000003;-1065353736.0;-1043673706.0;-151070.0;-3344.3044277675067;-3317.917672993768;-40.889313273063635;-0.023203725845633016;3000.0;-3000.0232037258456
0.4240000000000003;-1078730955.0;-1057071533.0;-130461.0;-3344.3045007822884;-3341.8826694185973;-14.945957674319743;-0.01825369542984845;-333.3333333333333;333.31507963790347
0.4280000000000003;-1092108173.0;-1070392456.0;-186756.0;-3344.3045539098844;-3302.332937001663;-59.900095171235535;-0.013281898986861052;-166.66666666666666;166.6533847676798
0.43200000000000033;-1105485392.0;-1083614502.0;-341929.0;-3344.3045870645838;-3301.85535249336;-75.27435292535529;-0.008288674848699884;2166.6666666666665;-2166.674955341515
0.43600000000000033;-1118862611.0;-1096973877.0;-359772.0;-3344.3046001629345;-3351.293973401427;-27.548705342479934;-0.0032745876978879096;1833.3333333333333;-1833.3366079210311
0.44000000000000034;-1132239830.0;-1110399170.0;-311698.0;-3344.3045931216743;-3362.104593727079;-12.123006336515573;0.0017603150581635418;-333.3333333333333;333.3350936483915
0.44400000000000034;-1145617049.0;-1123873901.0;-214186.0;-3344.3045658595515;-3360.891095355194;-3.9753579392236134;0.006815530696258065;-5500.0;5500.006815530696
0.44800000000000034;-1158994268.0;-1137376099.0;-89207.0;-3344.304518296569;-3359.985841477002;7.117387123074877;0.011890745668097225;-5250.0;5250.011890745668
0.45200000000000035;-1172371486.0;-1150878296.0;35771.0;-3344.304450355464;-3367.0330148319545;26.16248367065964;0.016985276261038962;-1416.6666666666667;1416.6836519429278
0.45600000000000035;-1185748705.0;-1164155273.0;-64471.0;-3344.3043619585947;-3326.957275501648;-23.53643213600617;0.022099217289905937;2666.6666666666665;-2666.6445674493766
0.46000000000000035;-1199125922.0;-1177553101.0;-43861.0;-3344.3042530314624;-3366.357173686439;17.84210198087203;0.027231783064962656;4000.0;-3999.972768216935
0.46400000000000036;-1212503139.0;-1191104736.0;130556.0;-3344.304123500069;-3379.478592561614;47.70764927298342;0.03238284830331395;-916.6666666666666;916.6990495149699
0.46800000000000036;-1225880356.0;-1204486084.0;134687.0;-3344.3039732921784;-3346.8202053976383;15.445955085112473;0.03755197269583732;-2333.3333333333335;2333.3708853060293
0.47200000000000036;-1239257572.0;-1218010254.0;281640.0;-3344.3038023378112;-3365.817612568871;48.55098786493454;0.042738591787383484;-3166.6666666666665;3166.709405258454
