Zeit[sec];Sollposition[°];Istposition[°];Positionsschleppfehler[°];Sollgeschwindigkeit[°/s];Istgeschwindigkeit[°/s];Geschwindigkeitsdifferenz[°/s];Sollbeschleunigung[°/s*s];Istbeschleunigung[°/s*s];Beschleunigungsdifferenz[°/s*s]
0.0;-37.0;994263.0;-994117.0;-0.020905074419380686;-0.7792338835911687;-94.70511324845027;5.220695308531193;333.3333333333333;-328.1126380248021
0.004;-56.0;988770.0;-988757.0;-0.0045667904828136435;1.2888430110336122;-96.24309545210477;4.08457098414176;0.0;4.08457098414176
0.008;-41.0;977783.0;-977827.0;0.0036710791112081766;-1.0266137191394191;-92.85932784103107;2.059467398505455;166.66666666666666;-164.6071992681612
0.012;-19.0;950317.0;-950366.0;0.005502145099447651;-8.979762464658384;-82.25676987137955;0.4577664970598685;-83.33333333333333;83.7910998303932
0.016;-3.0;950317.0;-950348.0;0.004079850685262652;1.0483357313712327;-92.27739493197323;-0.35557360354624973;-250.0;249.64442639645375
0.02;4.0;928345.0;-928357.0;0.0019213778260199492;-4.329595452927897;-84.78774904838684;-0.5396182148106756;0.0;-0.5396182148106756
0.024;5.0;922852.0;-922852.0;0.00031336384495058854;-1.5061877944443545;-87.08437182187659;-0.4020034952673402;-83.33333333333333;82.93132983806599
0.028;4.0;922852.0;-922848.0;-0.0004477744347983854;0.868565297856902;-89.46067682514725;-0.1902845699372435;416.6666666666667;-416.85695123660395
0.032;1.0;895386.0;-895382.0;-0.0005749039569108733;-6.096859073608596;-79.85979192002465;-0.03178238052812198;-83.33333333333333;83.3015509528052
0.036000000000000004;0.0;889893.0;-889891.0;-0.00040032470158008084;-1.1806215123207526;-84.24940820718854;0.04364481383269812;-83.33333333333333;83.37697814716603
0.04000000000000001;0.0;856934.0;-856934.0;-0.00017407434650467535;-8.25693717471245;-74.009231766398;0.056562588768851375;-333.3333333333333;333.38989592210214
0.04400000000000001;0.0;851440.0;-851440.0;-1.5795488868860636e-05;-2.9066394474929886;-78.83191219540329;0.039569714408953675;-83.33333333333333;83.37290304774228
0.048000000000000015;-2542.0;851440.0;-851440.0;-0.6355876732482757;0.6904912134431757;-82.42884385838143;-158.8929694398517;250.0;-408.8929694398517
0.05200000000000002;-257845.0;829468.0;-830476.0;-63.825717863424835;-5.85333634043741;-74.12437070118764;-15797.53254754414;166.66666666666666;-15964.199214210807
0.05600000000000002;-1062977.0;791016.0;-894767.0;-201.28297145118864;-9.781658783980806;-101.80173610991702;-34364.313396940954;-250.0;-34114.313396940954
0.060000000000000026;-2838263.0;505371.0;-1080942.0;-443.82147820073885;-85.02498608057323;-136.70056239172956;-60634.62668738755;-2500.0;-58134.62668738755
0.06400000000000003;-5935584.0;-455933.0;-1306200.0;-774.3300990762793;-257.84570140031434;-164.18978471766223;-82627.15521888512;-12250.0;-70377.15521888512
0.06800000000000003;-10745452.0;-2449951.0;-1605949.0;-1202.4669477208263;-508.99103107758566;-218.62193104011823;-107034.21216113673;-30333.333333333332;-76700.8788278034
0.07200000000000004;-17650542.0;-5811768.0;-2012705.0;-1726.2723867342484;-874.841877870968;-260.5208981041711;-130951.35975335551;-52166.666666666664;-78784.69308668886
0.07600000000000004;-27105962.0;-11315918.0;-2139111.0;-2363.8549241888363;-1408.0237614951834;-204.96989998695358;-159395.634363647;-79666.66666666667;-79728.96769698033
0.08000000000000004;-39739308.0;-19204102.0;-2154907.0;-3158.336436080919;-1994.9926221121714;-187.8731780014541;-198620.37797302072;-109500.0;-89120.3779730207
0.08400000000000005;-56190114.0;-29794922.0;-2264561.0;-4112.701136654709;-2704.697512211045;-187.81893848898108;-238591.17514344756;-136583.33333333334;-102007.84181011423
0.08800000000000005;-76920827.0;-43895874.0;-2291898.0;-5182.678020130537;-3575.1466727119846;-176.9474980892537;-267494.220868957;-165833.33333333334;-101660.88753562362
0.09200000000000005;-102260662.0;-62127686.0;-2185440.0;-6334.958429835288;-4609.10742713186;-132.0330847647847;-288070.1024261878;-196750.0;-91320.10242618776
0.09600000000000006;-132447185.0;-84583740.0;-2262467.0;-7546.630422461404;-5659.961874795379;-190.50475960007316;-302917.9981565289;-233916.66666666666;-69001.33148986228
0.10000000000000006;-167466386.0;-111928711.0;-2151960.0;-8754.799906195947;-6911.96878949323;-103.2351700178142;-302042.37093363574;-259916.66666666666;-42125.70426696911
0.10400000000000006;-207077774.0;-144624023.0;-1530854.0;-9902.846527096119;-8238.10109237988;72.58800384770711;-287011.6552250429;-290083.3333333333;3071.678108290427
0.10800000000000007;-251028888.0;-181658936.0;-1307556.0;-10987.778116432994;-9305.6052539802;-22.823457105458147;-271232.8973342187;-304500.0;33267.10266578129
0.11200000000000007;-299094414.0;-222835693.0;-1435913.0;-12016.380859781242;-10355.963294469577;-108.16246807319112;-257150.68583706216;-297583.3333333333;40432.64749627116
0.11600000000000008;-350980078.0;-268055420.0;-1773172.0;-12971.415344793286;-11317.267519008376;-242.20300421306274;-238758.6212530109;-276500.0;37741.37874698908
0.12000000000000008;-406276732.0;-317114868.0;-2269767.0;-13824.162857827563;-12314.555240257736;-292.3525332176432;-213186.8782585693;-251750.0;38563.121741430674
0.12400000000000008;-464482306.0;-369777832.0;-2822488.0;-14551.392835800769;-13139.329271484194;-435.55008086167436;-181807.49449330143;-249333.33333333334;67525.83884003192
0.12800000000000009;-525022467.0;-424692993.0;-4337336.0;-15135.039374994858;-13798.089705696917;-725.7961639694295;-145911.6347985223;-214916.66666666666;69005.03186814436
0.1320000000000001;-587338405.0;-483184204.0;-4960282.0;-15578.983984149303;-14655.556800307651;-599.1687276542052;-110986.15228861127;-200833.33333333334;89847.18104472208
0.1360000000000001;-651045544.0;-544498901.0;-4876134.0;-15926.783992340324;-15280.77631928162;-494.9692166678742;-86950.00204775533;-188750.0;101799.99795224467
0.1400000000000001;-715912188.0;-606165161.0;-6066997.0;-16216.660096320722;-15446.987300657836;-849.7244264198162;-72469.0259950994;-162000.0;89530.9740049006
0.1440000000000001;-781703310.0;-669501343.0;-6889528.0;-16447.77985370886;-15899.406532370223;-801.6656032112078;-57779.93934703454;-117500.0;59720.06065296546
0.1480000000000001;-848147051.0;-735018311.0;-6598951.0;-16610.93439653787;-16349.748789944437;-590.3474821377113;-40788.63570725207;-92666.66666666667;51878.0309594146
0.1520000000000001;-914989669.0;-800310059.0;-7351661.0;-16710.6536606869;-16341.923531315853;-874.9497880065355;-24929.816037258206;-82666.66666666667;57736.850629408465
0.1560000000000001;-982031943.0;-866579590.0;-7680196.0;-16760.567742664927;-16679.45214342226;-707.362215587822;-12478.520494506483;-65583.33333333333;53104.812838826845
0.16000000000000011;-1049143765.0;-934678345.0;-6500882.0;-16777.9545581768;-17005.862961029154;-348.0812326911182;-4346.703877968139;-58833.333333333336;54486.6294553652
0.16400000000000012;-1116259165.0;-1001716919.0;-6530987.0;-16778.849307473087;-16724.804256693606;-669.3393733286939;-223.6873240717614;-47833.333333333336;47609.646009261574
0.16800000000000012;-1183355996.0;-1069414673.0;-5946066.0;-16774.20685062122;-17011.798361230212;-337.23141118995045;1160.6142129667205;-30583.333333333332;31743.947546300053
0.17200000000000013;-1250434798.0;-1137639771.0;-4828985.0;-16769.69979757424;-17022.208605935222;-218.37735726280516;1126.7632617445997;-17000.0;18126.7632617446
0.17600000000000013;-1317503704.0;-1204161987.0;-5396560.0;-16767.225593584757;-16628.65547151282;-661.8613648935752;618.5509973711305;6916.666666666667;-6298.1156692955365
0.18000000000000013;-1384569971.0;-1271766357.0;-4867174.0;-16766.56610139793;-16915.776254076514;-320.21767278927655;164.87304670681624;2916.6666666666665;-2751.7936199598503
0.18400000000000014;-1451637213.0;-1339650879.0;-4050570.0;-16766.80965804004;-16927.638936903048;-228.1943956231953;-60.88916052794957;7166.666666666667;-7227.5558271946165
0.18800000000000014;-1518705932.0;-1406612549.0;-4155569.0;-16767.179068693324;-16775.762267467744;-389.83888854524776;-92.35266332052561;1500.0;-1592.3526633205256
0.19200000000000014;-1585775051.0;-1474365234.0;-3470706.0;-16767.27890806512;-16923.51688650087;-176.62558600146076;-24.959842949101585;-10166.666666666666;10141.706823717564
0.19600000000000015;-1652843176.0;-1541947632.0;-2957177.0;-16767.03034119944;-16832.022125870062;-219.0833550586358;62.14171642022848;1666.6666666666667;-1604.5249502464383
0.20000000000000015;-1719909240.0;-1608760986.0;-3212546.0;-16766.515329175065;-16723.253565405823;-352.3306207846035;128.7530060935751;6583.333333333333;-6454.580327239758
0.20400000000000015;-1786949359.0;-1675881958.0;-3158887.0;-16760.028977698857;-16784.671307580124;-285.4094478451698;1621.5878690518366;8000.0;-6378.412130948163
0.20800000000000016;-1853879631.0;-1743370972.0;-2725662.0;-16732.567121682852;-16869.012637043143;-156.5975247694223;6865.464004001296;10583.333333333334;-3717.8693293320375
0.21200000000000016;-1920788599.0;-1810607300.0;-2486052.0;-16727.24120638898;-16765.689235125006;-222.15054372068698;1331.4788234683874;-9333.333333333334;10664.812156801721
0.21600000000000016;-1987690044.0;-1877431641.0;-2584181.0;-16725.3603822846;-16732.850418422702;-245.84734637613656;470.2060260942744;2083.3333333333335;-1613.127307239059
0.22000000000000017;-2054586068.0;-1944931641.0;-1990291.0;-16724.00535993101;-16897.790678099795;-19.803953454586008;338.75558839827136;3833.3333333333335;-3494.577744935062
0.22400000000000017;-2121477010.0;-2011640625.0;-2180646.0;-16722.734631914598;-16644.17552563199;-290.00064791535624;317.6820041026076;3250.0;-2932.3179958973924
0.22800000000000017;-2188362936.0;-2078459473.0;-2255839.0;-16721.4805919656;-16738.96868126458;-201.1013384471371;313.5099872497449;6750.0;-6436.490012750255
0.23200000000000018;-2255243873.0;-2146684570.0;-919725.0;-16720.23348732258;-17027.28151105131;216.74304071017104;311.7761607545617;-9333.333333333334;9645.109494087896
0.23600000000000018;-2322119853.0;-2212855225.0;-1633048.0;-16718.994289811144;-16540.096560784128;-337.66952956682144;309.7993778592354;-333.3333333333333;643.1327111925686
0.24000000000000019;-2388990921.0;-2279718018.0;-1649256.0;-16717.766201120783;-16774.47501673808;-103.60303138743984;307.0221725902229;6666.666666666667;-6359.644494076444
0.2440000000000002;-2455857134.0;-2347679443.0;-561892.0;-16716.552320357143;-16850.19030117377;77.73403641656114;303.4701909100477;-5000.0;5303.470190910048
0.2480000000000002;-2522718557.0;-2413267822.0;-1842685.0;-16715.35497996623;-16387.03474367577;-507.15512852126994;299.3350977285445;14333.333333333334;-14033.99823560479
0.25200000000000017;-2589575263.0;-2480921631.0;-1053218.0;-16714.17578978708;-16960.501960673097;143.30832648991054;294.79754478688847;-916.6666666666666;1211.464211453555
0.25600000000000017;-2656427330.0;-2548553467.0;-280963.0;-16713.01591713269;-16800.815252389115;58.94833923772967;289.9681635981324;-6583.333333333333;6873.301496931465
0.2600000000000002;-2723274838.0;-2613999023.0;-1690301.0;-16711.87634457972;-16443.97605643341;-432.01566728669786;284.8931382422961;9333.333333333334;-9048.440195091038
0.2640000000000002;-2790117874.0;-2682026367.0;-513244.0;-16710.75801463316;-17014.298215426963;252.45590087687015;279.58248663981067;-8083.333333333333;8362.915819973143
0.2680000000000002;-2856956524.0;-2749070435.0;-314938.0;-16709.661870799417;-16699.963981817615;-41.70968759520838;274.03595843588846;5000.0;-4725.9640415641115
0.2720000000000002;-2923790883.0;-2814785156.0;-1441540.0;-16708.58884041808;-16581.6242813251;-267.09352211976875;268.2575953340347;6416.666666666667;-6148.409071332632
0.2760000000000002;-2990621007.0;-2883197021.0;133351.0;-16707.530383919908;-17048.985595755243;352.5444380181325;264.61412454318634;-13916.666666666666;14181.280791209852
0.2800000000000002;-3057446873.0;-2949680786.0;-215589.0;-16706.465665636675;-16541.087343011186;-187.78466723113888;266.1795708081627;3250.0;-2983.8204291918373
0.2840000000000002;-3124268422.0;-3015714111.0;-1010725.0;-16705.386409254268;-16613.257676291294;-190.88636535907426;269.8140956017596;2833.3333333333335;-2563.519237731574
0.2880000000000002;-3191072946.0;-3083889771.0;340756.0;-16701.13025964375;-16953.352567545815;280.0211476177137;1064.037402629765;-1583.3333333333333;2647.370735963098
0.2920000000000002;-3257819184.0;-3150071411.0;-292428.0;-16686.558658608756;-16487.34667582642;-244.4316483774819;3642.900258748341;8500.0;-4857.099741251659
0.2960000000000002;-3324454976.0;-3216719971.0;-425383.0;-16658.94722588417;-16763.999152137203;27.784598245903908;6902.858181146257;-3333.3333333333335;10236.191514479591
0.3000000000000002;-3390933226.0;-3284527588.0;679445.0;-16619.561717225202;-16856.665695858028;246.1958784210874;9846.37716474208;-5166.666666666667;15013.043831408748
0.3040000000000002;-3457196554.0;-3350000610.0;-421509.0;-16565.831059503962;-16367.382243952123;-316.5758928859668;13432.66443031007;15250.0;-1817.3355696899307
0.3080000000000002;-3523179929.0;-3416489868.0;-326211.0;-16495.84313217451;-16721.06629887128;91.26091742623976;17496.981832363417;7083.333333333333;10413.648499030085
0.3120000000000002;-3588785932.0;-3483468018.0;498349.0;-16401.499904636974;-16653.941758000194;163.38649404845637;23585.8068843836;9500.0;14085.8068843836
0.3160000000000002;-3653832955.0;-3548270874.0;-534189.0;-16261.754930374518;-16244.886982156926;-265.2427639235666;34936.24356561395;18500.0;16436.24356561395
0.32000000000000023;-3718104252.0;-3614172363.0;-19287.0;-16067.82344823854;-16505.688576096967;157.1910258910102;48482.87053399463;7916.666666666667;40566.20386732796
0.32400000000000023;-3781427644.0;-3679519043.0;584658.0;-15830.847377555727;-16227.659421280925;98.10364318527718;59244.017670703215;24083.333333333332;35160.68433736988
0.32800000000000024;-3843672928.0;-3742393799.0;-440598.0;-15561.320088348484;-15768.005195490035;-249.2946687519743;67381.82230181064;39583.333333333336;27798.488968477308
0.33200000000000024;-3904588272.0;-3805971680.0;235789.0;-15228.835356412566;-15893.365293857276;190.62848744412986;83121.18298397945;42083.333333333336;41037.849650646116
0.33600000000000024;-3964229118.0;-3868082886.0;622695.0;-14910.210769013225;-15438.77589125535;67.480262585339;79656.14684983529;60416.666666666664;19239.48018316863
0.34000000000000025;-4022322166.0;-3927837524.0;-40486.0;-14523.261439447231;-14971.143716815046;-137.19677792899893;96737.33239149851;65500.0;31237.332391498512
0.34400000000000025;-4078691704.0;-3987158203.0;245557.0;-14092.383700024751;-14799.65789442943;64.57301956402807;107719.43485561997;75250.0;32469.434855619966
0.34800000000000025;-4133167673.0;-4044358521.0;27103.0;-13618.99158912478;-14245.853698367804;-106.23684309104465;118348.02772499279;99000.0;19348.02772499279
0.35200000000000026;-4185650474.0;-4099092407.0;-867877.0;-13120.699809744598;-13697.920859964257;-292.611131094809;124572.94484504564;102000.0;22572.94484504564
0.35600000000000026;-4236060241.0;-4152952881.0;-704207.0;-12602.441126577116;-13420.298326617882;-71.50601169144647;129564.67079187042;108833.33333333333;20731.337458537084
0.36000000000000026;-4284279060.0;-4204412842.0;-916801.0;-12054.704121688728;-12825.913204187187;-180.23770986822456;136934.2512220969;118416.66666666667;18517.584555430247
0.36400000000000027;-4330184046.0;-4253291016.0;-1591864.0;-11476.245977106157;-12220.174510459487;-320.953068041812;144614.5361456429;119583.33333333333;25031.20281230956
0.36800000000000027;-4373667995.0;-4300504761.0;-1692376.0;-10870.986679184873;-11785.027781515071;-206.00421676816768;151314.82448032103;131500.0;19814.824480321022
0.3720000000000003;-4414634399.0;-4345471802.0;-1683976.0;-10241.600632776173;-11196.783697121162;-204.53752472661472;157346.5116021748;136833.33333333334;20513.17826884147
0.3760000000000003;-4453005107.0;-4387884521.0;-1771224.0;-9592.676408330251;-10578.952124088086;-216.0767670514233;162231.0561114805;133666.66666666666;28564.389444813827
0.3800000000000003;-4488728141.0;-4428045044.0;-1562704.0;-8930.758104623392;-10012.725688596536;-125.29402149352063;165479.57592671493;141250.0;24229.575926714915
0.3840000000000003;-4521775232.0;-4465975342.0;-968561.0;-8261.772292980733;-9472.549210865694;45.52892110413086;167246.45291066464;149000.0;18246.45291066463
0.3880000000000003;-4552132878.0;-4501093140.0;-528342.0;-7589.411182977127;-8732.451517342299;12.336574571172605;168090.2775009015;146833.33333333334;21256.944167568152
0.3920000000000003;-4579794192.0;-4533151245.0;-466684.0;-6915.328274710019;-8020.802101433609;-23.11101981306183;168520.727066777;162416.66666666666;6104.060400110342
0.3960000000000003;-4604768564.0;-4563347168.0;424888.0;-6243.592619720029;-7544.750938715648;259.4527284420219;167933.91374749763;165250.0;2683.913747497627
0.4000000000000003;-4627092165.0;-4590747070.0;1213008.0;-5580.899967719423;-6799.868122161649;263.3716022449944;165673.16300015137;159833.33333333334;5839.829666818019
0.4040000000000003;-4646802103.0;-4615252075.0;1778886.0;-4927.48436526695;-6108.284189487647;294.27595660979205;163353.9006131184;158083.33333333334;5270.567279785069
0.4080000000000003;-4663992551.0;-4637202759.0;2426714.0;-4297.611679776422;-5448.8822871985285;356.132975474924;157468.171372632;163916.66666666666;-6448.495294034643
0.4120000000000003;-4678894910.0;-4656253052.0;2750693.0;-3725.5895974256578;-4723.948156776532;306.43639050022375;143005.52058769096;175333.33333333334;-32327.812745642375
0.4160000000000003;-4691757638.0;-4672710571.0;2910193.0;-3215.6819587436207;-4077.920257649608;282.79426341362387;127476.90967050925;169916.66666666666;-42439.7569961574
0.4200000000000003;-4702730358.0;-4686899414.0;2991952.0;-2743.179768028949;-3524.2693601357455;284.7258742518834;118125.54767866789;165833.33333333334;-47707.78565466546
0.4240000000000003;-4711917626.0;-4698852539.0;2819757.0;-2296.8167912290382;-2960.923846046336;200.29055500402046;111590.74419997774;155083.33333333334;-43492.58913335561
0.4280000000000003;-4719444710.0;-4708811646.0;2502973.0;-1881.7710604525241;-2498.0842200137267;169.39723834076494;103761.43269412853;143000.0;-39238.56730587147
0.43200000000000033;-4725462932.0;-4717188721.0;2340556.0;-1504.5553765467173;-2064.9691099091324;154.78943377630185;94303.9209764517;125333.33333333333;-31029.41235688162
0.43600000000000033;-4730149907.0;-4723840942.0;2054205.0;-1171.7436915416927;-1652.3375265950226;114.89836223735392;83202.92125125616;116583.33333333333;-33380.41208207717
0.44000000000000034;-4733746202.0;-4729306641.0;2020660.0;-899.0736448588876;-1360.754358763978;179.92672699117475;68167.51167070126;100750.0;-32582.48832929874
0.44400000000000034;-4736447301.0;-4733761597.0;2213278.0;-675.2747534443002;-1114.979319381453;261.8696604132027;55949.72285364685;89416.66666666667;-33466.943813019825
0.44800000000000034;-4738275504.0;-4737623291.0;2827217.0;-457.0506492460835;-957.3555946067162;416.82986928124365;54556.02604955419;68833.33333333333;-14277.307283779137
0.45200000000000035;-4739372099.0;-4740853271.0;3696943.0;-274.1487519400715;-795.1920277939997;560.0349282832085;45725.47432650299;51083.333333333336;-5357.859006830346
0.45600000000000035;-4739929726.0;-4743253784.0;4554209.0;-139.40681171850508;-594.3214417784922;645.71394411158;33685.48505539161;44166.666666666664;-10481.181611275055
0.46000000000000035;-4740170683.0;-4745115967.0;5529203.0;-60.239363469633055;-460.80104491912203;769.8071641296148;19791.862062218006;42500.0;-22708.137937781994
0.46400000000000036;-4740185232.0;-4746395874.0;6373880.0;-3.637072882307125;-309.8814646607973;812.9662856255354;14150.572646831482;41083.333333333336;-26932.760686501853
0.46800000000000036;-4740115544.0;-4747131958.0;6956918.0;17.42181320930127;-175.1597448592894;804.7625614296844;5264.7215229020985;37583.333333333336;-32318.611810431237
0.47200000000000036;-4740043133.0;-4747263794.0;7106278.0;18.102864131734194;-28.200623109519483;714.7841034710572;170.26273060823092;35083.333333333336;-34913.07060272511
