Zeit[sec];Sollposition[°];Istposition[°];Positionsschleppfehler[°];Sollgeschwindigkeit[°/s];Istgeschwindigkeit[°/s];Geschwindigkeitsdifferenz[°/s];Sollbeschleunigung[°/s*s];Istbeschleunigung[°/s*s];Beschleunigungsdifferenz[°/s*s]
0.0;0.0;-126343.0;126343.0;0.0;-2.839409733165199;10.419989733165197;0.0;-83.33333333333333;83.33333333333333
0.004;0.0;-120850.0;120850.0;0.0;-0.037155880505553344;7.288155880505554;0.0;0.0;0.0
0.008;0.0;-120850.0;120850.0;0.0;-2.2816928026652588;9.53269280266526;0.0;83.33333333333333;-83.33333333333333
0.012;0.0;-120850.0;120850.0;0.0;-1.446733522469839;8.69773352246984;0.0;0.0;0.0
0.016;0.0;-115356.0;115356.0;0.0;0.008127761956730694;6.913232238043269;0.0;0.0;0.0
0.02;0.0;-109863.0;109863.0;0.0;1.066573505099502;5.525206494900498;0.0;0.0;0.0
0.024;0.0;-115356.0;115356.0;0.0;-3.807728215489401;10.729088215489401;0.0;83.33333333333333;-83.33333333333333
0.028;0.0;-109863.0;109863.0;0.0;-2.4876590323290246;9.079439032329024;0.0;0.0;0.0
0.032;0.0;-104370.0;104370.0;0.0;0.449137934020887;5.813062065979114;0.0;-83.33333333333333;83.33333333333333
0.036000000000000004;0.0;-104370.0;104370.0;0.0;0.05005649615335483;6.212143503846646;0.0;-83.33333333333333;83.33333333333333
0.04000000000000001;0.0;-104370.0;104370.0;0.0;-0.1018196784190219;6.364019678419023;0.0;0.0;0.0
0.04400000000000001;0.0;-104370.0;104370.0;0.0;-0.33671446179475695;6.598914461794758;0.0;0.0;0.0
0.048000000000000015;2188.0;-104370.0;104370.0;0.5471341481871658;-0.1569486701701764;6.419148670170177;136.78353704679145;0.0;136.78353704679145
0.05200000000000002;23998.0;-93384.0;94251.0;5.452559939952512;0.411006573418861;5.460983567366285;1226.3564479413367;166.66666666666666;1059.68978127467
0.05600000000000002;131200.0;-93384.0;104206.0;26.800437767539137;-0.318435218622836;9.059648181817431;5336.969456896656;0.0;5336.969456896656
0.060000000000000026;485396.0;-87891.0;154265.0;88.54893263393413;2.137892460094736;21.00592474865619;15437.123716598748;0.0;15437.123716598748
0.06400000000000003;1383086.0;-76904.0;347909.0;224.42254447649177;2.4765494236172234;69.5556565165692;33968.40296063941;0.0;33968.40296063941
0.06800000000000003;3258050.0;-27466.0;866707.0;468.7409574873554;14.17740179093063;179.88390732628477;61079.603252715904;500.0;60579.603252715904
0.07200000000000004;6639086.0;137329.0;1983891.0;845.2589546770944;45.948156634133646;393.58014668157216;94129.49929743476;2000.0;92129.49929743476
0.07600000000000004;12095862.0;1043701.0;3543891.0;1364.1939929386874;271.38508448933095;557.8412825888142;129733.75956539826;8666.666666666666;121067.09289873159
0.08000000000000004;20211016.0;4339600.0;4443202.0;2028.7883740486025;861.9172777233462;453.4772711247135;166148.59527747877;42166.666666666664;123981.9286108121
0.08400000000000005;31572802.0;10200806.0;5080614.0;2840.446457947293;1510.4033250783748;419.0881606933749;202914.5209746726;93750.0;109164.5209746726
0.08800000000000005;46755788.0;19429321.0;5238916.0;3795.7462025451064;2363.691284114532;297.3476903405244;238824.93614945337;147833.33333333334;90991.60281612004
0.09200000000000005;66282252.0;32387695.0;5138351.0;4881.615883854592;3280.4629965619615;242.29013447451143;271467.42032737134;189916.66666666666;81550.75366070466
0.09600000000000006;90586440.0;49004517.0;5404246.0;6076.046646407782;4211.83037291211;333.10349211743323;298607.6906382975;212583.33333333334;86024.35730496419
0.10000000000000006;119991906.0;70263062.0;5541008.0;7351.366005303455;5377.047990907566;304.23898965477656;318829.83972391824;237916.66666666666;80913.17305725155
0.10400000000000006;154697351.0;96652222.0;5450618.0;8676.361052919969;6658.092600086798;243.63670750880192;331248.76190412854;265000.0;66248.7619041285
0.10800000000000007;194775907.0;128534546.0;5045229.0;10019.638375079008;8036.420041734323;135.52696253293107;335819.3305397599;299583.3333333333;36235.99720642659
0.11200000000000007;240188037.0;165657349.0;4727171.0;11353.031966787288;9324.137309128344;160.67883046239695;333348.39792707;327250.0;6098.397927069982
0.11600000000000008;290797464.0;207883301.0;4662971.0;12652.35624091328;10621.661589270172;198.55400508677303;324831.06853149773;329833.3333333333;-5002.264801835565
0.12000000000000008;346385169.0;255569458.0;4418339.0;13896.925626525548;11986.358747725599;139.12247873443994;311142.34640306723;330000.0;-18857.653596932778
0.12400000000000008;406655471.0;308836670.0;3703911.0;15067.574603532243;13364.61683486546;-4.1868471222751396;292662.24425167363;332000.0;-39337.755748326344
0.12800000000000009;471230717.0;366778564.0;3177129.0;16143.810845427868;14507.905813929823;36.4991818447852;269059.06047390634;334750.0;-65690.93952609364
0.1320000000000001;539649396.0;428730469.0;3174932.0;17104.668799722236;15549.25243171875;128.66967418417698;240214.488573592;311416.6666666667;-71202.17809307468
0.1360000000000001;611382837.0;495659180.0;2320104.0;17933.35947048939;16789.678836454466;-132.00265728427985;207172.66769178878;289416.6666666667;-82243.9989748779
0.1400000000000001;685865480.0;566235352.0;1454342.0;18620.65980800381;17641.50536530397;-126.64316999022049;171825.08437860452;275583.3333333333;-103758.2489547288
0.1440000000000001;762526313.0;639305420.0;1188308.0;19165.20738969268;18308.250649084155;-35.94446323709781;136136.89542221802;247250.0;-111113.104577782
0.1480000000000001;840819554.0;715089111.0;734770.0;19573.30943920172;18968.206355854178;-91.5828906818133;102025.51237725947;208666.66666666666;-106641.15428940719
0.1520000000000001;920253677.0;792740479.0;378696.0;19858.529623931787;19431.950197449936;-85.40567020790331;71305.04618251689;162416.66666666666;-91111.62048414977
0.1560000000000001;1000410867.0;872149658.0;-294465.0;20039.296614076397;19856.88294529324;-190.54728235778748;45191.747536152434;140666.66666666666;-95474.91913051423
0.16000000000000011;1080959005.0;952338867.0;-769551.0;20137.03353470164;20031.33459367034;-148.97795465034142;24434.23015631106;113000.0;-88565.76984368893
0.16400000000000012;1161662874.0;1032846680.0;-969406.0;20175.96629309185;20156.02399082186;-137.19975643982616;9733.189597552155;72333.33333333333;-62600.143735781174
0.16800000000000012;1242385315.0;1113513794.0;-1028928.0;20180.609470450006;20129.419645833015;-39.25823802330342;1160.7943395392795;44916.666666666664;-43755.872327127385
0.17200000000000013;1323068831.0;1193845825.0;-650639.0;20170.87791700082;20134.363039977896;4.177738755613973;-2432.8883622965805;8583.333333333334;-11016.221695629914
0.17600000000000013;1403705572.0;1275095215.0;-1193130.0;20159.184312372417;20268.98268779874;-163.8466323531502;-2923.4011571006704;13583.333333333334;-16506.734490434006
0.18000000000000013;1484309438.0;1355256958.0;-689674.0;20150.965612696607;20052.861173572688;72.05699272652419;-2054.6749189525144;-1166.6666666666667;-888.0082522858477
0.18400000000000014;1564897651.0;1436033936.0;-842672.0;20147.05213642463;20196.662666773456;-91.22874319070615;-978.3690679942083;1166.6666666666667;-2145.0357346608753
0.18800000000000014;1645482376.0;1516261597.0;-472480.0;20146.180421305937;20046.463569158732;74.64976778751952;-217.92877967345703;-6750.0;6532.071220326543
0.19200000000000014;1726069330.0;1597066040.0;-690001.0;20146.737589403332;20235.261732180898;-129.93234665524506;139.29202434883337;-7250.0;7389.292024348833
0.19600000000000015;1806659643.0;1677546387.0;-584719.0;20147.57713040453;20091.60947762861;19.713819827957195;209.88525029952143;9666.666666666666;-9456.781416367145
0.20000000000000015;1887252306.0;1757960815.0;-410874.0;20148.1648463608;20137.650601665806;-15.235852030145907;146.92898906741902;-7083.333333333333;7230.262322400752
0.20400000000000015;1967844891.0;1838413696.0;-272530.0;20148.145427772346;20089.988999765523;41.464431647043966;-4.854647113461397;4583.333333333333;-4588.187980446794
0.20800000000000016;2048429733.0;1918668823.0;64961.0;20146.209432794887;20092.08307378645;59.96828975927929;-483.998744364726;-12333.333333333334;11849.334588968608
0.21200000000000016;2128986110.0;1999692993.0;-369693.0;20139.093164029448;20236.635173238265;-111.43880344379068;-1779.0671913598999;8833.333333333334;-10612.400524693234
0.21600000000000016;2209472406.0;2080305176.0;-408275.0;20121.573094203202;20142.872900268023;-23.970113126346405;-4380.017456561291;6333.333333333333;-10713.350789894623
0.22000000000000017;2289818062.0;2160950317.0;-524658.0;20086.41307203168;20165.417850336395;-64.70890335468357;-8790.005542880863;6250.0;-15040.005542880863
0.22400000000000017;2369914335.0;2241035156.0;-178552.0;20024.06726164369;20011.13167417267;85.89055727399318;-15586.452596997333;-5333.333333333333;-10253.119263664
0.22800000000000017;2449609858.0;2321400146.0;-295939.0;19923.87983668315;20105.815782531517;-61.67217441048706;-25046.85624013473;-15750.0;-9296.85624013473
0.23200000000000018;2528715538.0;2401397095.0;-354044.0;19776.419163160346;19969.22886646584;-5.761685907771607;-36865.16838070111;-4833.333333333333;-32031.835047367775
0.23600000000000018;2607015190.0;2481124878.0;-617820.0;19574.911964646355;19937.935132109695;-109.00331271217874;-50376.79962849779;-14250.0;-36126.79962849779
0.24000000000000019;2684277570.0;2559902344.0;-605727.0;19315.59414142955;19646.828040486205;14.217074397227407;-64829.45580420164;-14416.666666666666;-50412.78913753498
0.2440000000000002;2760269358.0;2637916260.0;-726531.0;18997.94607186343;19540.797500013552;-111.11215419036671;-79412.01739152984;-44833.333333333336;-34578.68405819651
0.2480000000000002;2834767815.0;2715303955.0;-1349538.0;18624.613257884186;19294.376458722487;-184.17765325441724;-93333.20349481073;-38833.333333333336;-54499.870161477396
0.25200000000000017;2907570337.0;2790664673.0;-1303105.0;18200.62983568468;18838.381690829705;-64.78132722623195;-105995.85554987699;-64833.333333333336;-41162.52221654364
0.25600000000000017;2978502780.0;2864690552.0;-1494189.0;17733.10986485372;18477.531710891264;-108.48509821130574;-116879.9927077398;-72583.33333333333;-44296.659374406474
0.2600000000000002;3047428535.0;2936486206.0;-1218841.0;17231.437778376458;17929.292858423058;15.32643169115181;-125418.02161931538;-103666.66666666667;-21751.354952648697
0.2640000000000002;3114252833.0;3006557007.0;-1141862.0;16706.073700023175;17533.132452364232;-64.70007634331341;-131341.0195883207;-114750.0;-16591.019588320705
0.2680000000000002;3178917818.0;3075249023.0;-1729560.0;16166.24569735251;17111.33570204152;-189.03068703670579;-134957.00066766632;-107750.0;-27207.000667666307
0.2720000000000002;3241391918.0;3140897827.0;-1397886.0;15618.524179739758;16388.75684062168;22.48863630170308;-136930.379403188;-120583.33333333333;-16347.04606985467
0.2760000000000002;3301658870.0;3204777832.0;-1468906.0;15066.737196694958;15954.074434560276;-89.9630660893763;-137946.74576119997;-128166.66666666667;-9780.079094533292
0.2800000000000002;3359709402.0;3266284790.0;-1364026.0;14512.632400898125;15349.025382255582;-27.908373854210367;-138526.19894920825;-141500.0;2973.801050791735
0.2840000000000002;3415536503.0;3325490112.0;-1168240.0;13956.774568373028;14784.381791010606;-4.199761107878658;-138964.45813127412;-142500.0;3535.541868725886
0.2880000000000002;3469133506.0;3382937622.0;-1433787.0;13399.250224944817;14359.93171240548;-150.46876903705015;-139381.08585705276;-133666.66666666666;-5714.41919038611
0.2920000000000002;3520493588.0;3437962646.0;-1502881.0;12840.019892786388;13692.175804652608;-43.36680764358607;-139807.5830396074;-132083.33333333334;-7724.249706274037
0.2960000000000002;3569609735.0;3490197144.0;-1014213.0;12279.03596010491;13050.905100525766;69.03299989193692;-140245.98317036952;-141833.33333333334;1587.3501629638158
0.3000000000000002;3616474797.0;3540844116.0;-1177681.0;11716.26508995909;12644.294162931825;-94.07975385219834;-140692.7175364549;-143083.33333333334;2390.61579687845
0.3040000000000002;3661081521.0;3589332275.0;-1429065.0;11151.680324520463;12082.947217403997;-109.4979987865172;-141146.19135965678;-141000.0;-146.19135965676833
0.3080000000000002;3703422523.0;3634859619.0;-973553.0;10585.250001205086;11352.778527430348;84.52183023654652;-141607.58082884422;-135166.66666666666;-6440.914162177563
0.3120000000000002;3743490268.0;3678442383.0;-834684.0;10016.935838907779;10903.035850721402;-22.709225061678808;-142078.5405743268;-145500.0;3421.45942567322
0.3160000000000002;3781277056.0;3720552979.0;-1492313.0;9446.69665742796;10491.533273991594;-217.83081055295224;-142559.79536995484;-140000.0;-2559.795369954827
0.32000000000000023;3816775022.0;3759878540.0;-1641173.0;8874.49111193013;9778.886583590918;-83.18208435801535;-143051.38637445724;-129333.33333333333;-13718.053041123923
0.32400000000000023;3849976138.0;3796226807.0;-1096769.0;8300.278440967526;9099.089676907452;58.27152764629318;-143553.16774065114;-139916.66666666666;-3636.5010739844765
0.32800000000000024;3880872189.0;3831113892.0;-1383142.0;7724.012503497911;8684.782727771151;-117.59372093655111;-144066.48436740375;-151666.66666666666;7600.182299262911
0.33200000000000024;3909454724.0;3863380737.0;-1349335.0;7145.6334607274475;8043.361700235384;-49.159271950375114;-144594.76069261588;-150083.33333333334;5488.572640717479
0.33600000000000024;3935715001.0;3893499756.0;-1476070.0;6565.068772741389;7502.254114246698;-92.74750580739237;-145141.1719965147;-136083.33333333334;-9057.838663181343
0.34000000000000025;3959643945.0;3920938110.0;-1239072.0;5982.235824379599;6831.885453669365;12.60779929857108;-145708.23709044748;-142416.66666666666;-3291.570423780826
0.34400000000000025;3981232109.0;3946343994.0;-1295410.0;5397.04079072604;6353.438333868602;-93.77657216919579;-146298.7584133898;-152083.33333333334;5784.574919943538
0.34800000000000025;4000471147.0;3969332886.0;-1269780.0;4809.759195653964;5690.476895634028;-13.033521618817758;-146820.398768019;-142000.0;-4820.398768019004
0.35200000000000026;4017360514.0;3989750977.0;-1017383.0;4222.341424224477;5107.533112210253;-0.9544005050684063;-146854.4428573716;-150833.33333333334;3978.89047596172
0.35600000000000026;4031918972.0;4008350830.0;-1296042.0;3639.6143395842364;4624.4751520023365;-121.93934122139399;-145681.7711600602;-141166.66666666666;-4515.104493393523
0.36000000000000026;4044195212.0;4024533691.0;-1499937.0;3069.060007430839;4002.19963416875;-97.45471288893259;-142638.58303834934;-143500.0;861.4169616506615
0.36400000000000027;4054277072.0;4037843628.0;-1142622.0;2520.464925303087;3314.9501473744026;33.305410934045995;-137148.770531938;-143250.0;6101.229468062002
0.36800000000000027;4062301040.0;4049181519.0;-1060938.0;2005.9919015795533;2821.4839818661085;-30.246540910823114;-128618.25593088343;-151583.33333333334;22965.077402449908
0.3720000000000003;4068455607.0;4058822021.0;-1422645.0;1538.6416568038176;2390.0351737941764;-155.69503944711778;-116837.56119393394;-144916.66666666666;28079.10547273272
0.3760000000000003;4072972939.0;4066457520.0;-1763306.0;1129.3327876549483;1858.001162717009;-140.09020047007425;-102327.21728721731;-124583.33333333333;22256.116046116018
0.3800000000000003;4076113366.0;4071588135.0;-1377538.0;785.1066525096941;1273.344792920662;23.098393057189924;-86056.53378631356;-123750.0;37693.466213686435
0.3840000000000003;4078148911.0;4075312500.0;-1120899.0;508.886292960655;929.8804568251335;-1.8835990667096212;-69055.08988725978;-128000.0;58944.91011274023
0.3880000000000003;4079346502.0;4077844849.0;-942822.0;299.3977512062987;624.3503570210896;-3.3131311188431027;-52372.135438589066;-116083.33333333333;63711.19789474426
0.3920000000000003;4079951888.0;4079459839.0;-848029.0;151.34652967826224;397.40054738007484;-20.836449297349134;-37012.80538200912;-88500.0;51487.19461799088
0.3960000000000003;4080178361.0;4080250854.0;-671343.0;56.61831708679013;190.94675382516348;10.697893269949247;-23682.053147868028;-65500.0;41817.94685213197
0.4000000000000003;4080198713.0;4080531006.0;-492872.0;5.087835758494232;71.4819877000954;13.60145344013499;-12882.620332073973;-54666.666666666664;41784.04633459269
0.4040000000000003;4080137131.0;4080596924.0;-411821.0;-15.395523795199756;18.420091920543463;-6.38701739598879;-5120.839888423497;-39333.333333333336;34212.49344490984
0.4080000000000003;4080066682.0;4080607910.0;-433733.0;-17.61205665408735;5.150116756113246;-33.90565659418007;-554.1332147218986;-24083.333333333332;23529.200118611432
0.4120000000000003;4080017979.0;4080602417.0;-492858.0;-12.175877093119558;-0.35284852469712497;-45.37295623084596;1359.044890241948;-10166.666666666666;11525.711556908615
0.4160000000000003;4079994881.0;4080602417.0;-554633.0;-5.77433927775065;-0.08505293877050281;-48.636635962468965;1600.384453842227;-3083.3333333333335;4683.71778717556
0.4200000000000003;4079989556.0;4080602417.0;-593312.0;-1.3312923767305267;-0.7578957212492824;-44.51044426670806;1110.761725255031;-500.0;1610.761725255031
0.4240000000000003;4079992505.0;4080602417.0;-609513.0;0.7372917400126722;-0.5167408473398537;-40.104288767404626;517.1460291857998;0.0;517.1460291857998
0.4280000000000003;4079997102.0;4080607910.0;-617154.0;1.1491693332657764;2.431610357671976;-39.99801493172017;102.96939831327606;0.0;102.96939831327606
0.43200000000000033;4080000298.0;4080607910.0;-613600.0;0.7990973446253298;1.0975929571371525;-37.025118797087956;-87.51799716011166;0.0;-87.51799716011166
0.43600000000000033;4080001559.0;4080602417.0;-604075.0;0.31509570167875506;-0.5431885107215494;-34.69335357493542;-121.00041073664367;0.0;-121.00041073664367
0.44000000000000034;4080001495.0;4080607910.0;-607131.0;-0.016013496075510125;-0.47312367695197466;-35.34548686432365;-82.7772994385663;0.0;-82.7772994385663
0.44400000000000034;4080000902.0;4080602417.0;-600891.0;-0.1483222103284766;-1.7887799735814334;-34.07802800095602;-33.07717856324162;0.0;-33.07717856324162
0.44800000000000034;4080000320.0;4080602417.0;-601158.0;-0.1452575583411957;-0.8781518317498267;-35.25785990927519;0.7661629968202244;0.0;0.7661629968202244
0.45200000000000035;4079999978.0;4080602417.0;-601743.0;-0.08569099865576292;-0.664134260011837;-35.586777617303916;14.891639921358193;0.0;14.891639921358193
0.45600000000000035;4079999891.0;4080591431.0;-591244.0;-0.021619380691489457;-1.0317009289562702;-34.56459737613379;16.017904491068364;-166.66666666666666;182.68457115773504
0.46000000000000035;4079999994.0;4080585938.0;-585993.0;0.025655712513327322;-2.2131557500176133;-33.007060876053984;11.818773301204194;0.0;11.818773301204194
0.46400000000000036;4080000202.0;4080596924.0;-596992.0;0.052063346704127655;3.367102855421603;-39.18987381996432;6.601908547700083;0.0;6.601908547700083
0.46800000000000036;4080000436.0;4080585938.0;-585862.0;0.058418704301369265;-0.9284457906540483;-34.18742528497088;1.5888393993104024;166.66666666666666;-165.07782726735624
0.47200000000000036;4080000624.0;4080585938.0;-585644.0;0.047022973846830206;0.4072643913868815;-35.4914759769259;-2.848932613634765;0.0;-2.848932613634765
0.47600000000000037;4080000718.0;4080574951.0;-574442.0;0.02343832677124617;-1.977890981271863;-32.43476578194442;-5.896161768896009;-83.33333333333333;77.43717156443732
0.48000000000000037;4080000703.0;4080585938.0;-585278.0;-0.0036265598023744227;6.211393321095034;-41.29033451945118;-6.7662216434051485;-83.33333333333333;76.56711168992818
0.4840000000000004;4080000600.0;4080569458.0;-568747.0;-0.025693509475936228;-1.0479825819134712;-33.06399170463529;-5.516737418390451;0.0;-5.516737418390451
0.4880000000000004;4080000449.0;4080558472.0;-557811.0;-0.037759862006444544;-3.33512381619215;-30.145753361068124;-3.016588132627079;0.0;-3.016588132627079
0.4920000000000004;4080000293.0;4080558472.0;-557932.0;-0.039196071158732165;-1.0400853262618184;-32.466183004932034;-0.3590522880719052;83.33333333333333;-83.69238562140524
0.4960000000000004;4080000162.0;4080541992.0;-541605.0;-0.032734913859008716;-4.4964555456154045;-28.038103049620887;1.6152893249308624;-166.66666666666666;168.28195599159753
