Zeit[sec];Sollposition[°];Istposition[°];Positionsschleppfehler[°];Sollgeschwindigkeit[°/s];Istgeschwindigkeit[°/s];Geschwindigkeitsdifferenz[°/s];Sollbeschleunigung[°/s*s];Istbeschleunigung[°/s*s];Beschleunigungsdifferenz[°/s*s]
0.0;0.0;16479.0;-16479.0;-0.0;1.1270865318160017;-2.115826531816002;0.0;0.0;0.0
0.004;0.0;10986.0;-10986.0;-0.0;-0.4931828724625022;-0.16597712753749777;0.0;0.0;0.0
0.008;0.0;21973.0;-21973.0;-0.0;4.870441481324213;-6.188821481324213;0.0;0.0;0.0
0.012;0.0;10986.0;-10986.0;-0.0;-0.9093689931287817;0.25020899312878175;0.0;0.0;0.0
0.016;0.0;5493.0;-5493.0;-0.0;-3.9515789948877016;3.6219989948877016;0.0;0.0;0.0
0.02;0.0;10986.0;-10986.0;-0.0;0.24201675231973754;-0.9011767523197375;0.0;0.0;0.0
0.024;0.0;5493.0;-5493.0;-0.0;-3.1135050716500947;2.7839250716500947;0.0;0.0;0.0
0.028;0.0;5493.0;-5493.0;-0.0;-2.502920518306897;2.173340518306897;0.0;0.0;0.0
0.032;0.0;10986.0;-10986.0;-0.0;0.37269675910774536;-1.0318567591077454;0.0;0.0;0.0
0.036000000000000004;0.0;5493.0;-5493.0;-0.0;-1.4825638219879547;1.1529838219879547;0.0;0.0;0.0
0.04000000000000001;0.0;16479.0;-16479.0;-0.0;0.8308678282974838;-1.819607828297484;0.0;83.33333333333333;-83.33333333333333
0.04400000000000001;0.0;10986.0;-10986.0;-0.0;-0.2090610932626448;-0.4500989067373552;0.0;0.0;0.0
0.048000000000000015;3432.0;5493.0;-5493.0;0.8582496442153105;-2.3132124710241824;1.9836324710241824;214.56241105382762;0.0;214.56241105382762
0.05200000000000002;37645.0;10986.0;-9625.0;8.55303519992697;0.08978952715847308;-0.3270069533777934;1923.696388927915;-83.33333333333333;2007.0297222612483
0.05600000000000002;205804.0;10986.0;5991.0;42.039902380461065;0.27968821327242394;3.9838548662491773;8371.716795133523;0.0;8371.716795133523
0.060000000000000026;761405.0;21973.0;82144.0;138.90028648462624;4.525321439125925;22.18828673146762;24215.096026041294;0.0;24215.096026041294
0.06400000000000003;2169547.0;27466.0;397640.0;352.035363884744;4.7524704546175;99.3532486672575;53283.76935002945;83.33333333333333;53200.43601669611
0.06800000000000003;5110667.0;82397.0;1234059.0;735.2799333135797;16.103411063616846;280.7776020614614;95811.14235720893;583.3333333333334;95227.80902387558
0.07200000000000004;10414253.0;390015.0;2937389.0;1325.8963994935805;90.56393972354442;588.4164093991943;147654.1165450002;3083.3333333333335;144570.78321166686
0.07600000000000004;18973902.0;2427979.0;4768244.0;2139.9121457862652;603.8247903207731;649.4744098018956;203503.9365731712;19500.0;184003.9365731712
0.08000000000000004;31703555.0;8371582.0;5405362.0;3182.41313576255;1520.629155660555;448.87284488551586;260625.24749407123;83750.0;176875.24749407123
0.08400000000000005;49524228.0;17567139.0;6403717.0;4455.168078072621;2338.5500670163115;594.1508287041493;318188.7355775177;156250.0;161938.7355775177
0.08800000000000005;73325972.0;31278076.0;7416510.0;5950.435819729864;3526.947520032587;598.9752593217909;373816.93541431084;216166.66666666666;157650.26874764415
0.09200000000000005;103894002.0;51300659.0;7556170.0;7642.007156748576;5092.400405066041;401.5306205251154;422892.8342546778;267500.0;155392.83425467784
0.09600000000000006;141834550.0;77497559.0;7808696.0;9485.136472684262;6607.561217403195;473.3166322286761;460782.3289839216;325416.6666666667;135365.66231725493
0.10000000000000006;187502857.0;110511475.0;8246252.0;11417.076056565995;8345.73562844696;511.90707237170864;482984.8959704332;380750.0;102234.89597043316
0.10400000000000006;240925598.0;151776123.0;7942889.0;13355.684821558942;10413.622342762825;303.2717425389874;484652.1912482367;422583.3333333333;62068.85791490339
0.10800000000000007;301767628.0;201264038.0;7152513.0;15210.50668391919;12452.42641092033;151.10855170411196;463705.46559006197;464000.0;-294.5344099380236
0.11200000000000007;369382908.0;258310547.0;6424941.0;16903.81907852063;14317.814259813089;147.4158728477105;423328.09865036054;497500.0;-74171.90134963949
0.11600000000000008;442917864.0;322245483.0;5974051.0;18383.738235054763;16082.217396928096;147.23615659463394;369979.7891335329;487083.3333333333;-117103.54419980041
0.12000000000000008;521416443.0;393436890.0;4705296.0;19624.64384053507;17854.975956804607;-91.99604876713056;310226.4013700769;462500.0;-152273.59862992307
0.12400000000000008;603902642.0;470412598.0;3197857.0;20621.548681412267;19246.76559022577;-187.82765305596695;249226.21021929898;435250.0;-186023.78978070102
0.12800000000000009;689434230.0;551513672.0;2147307.0;21382.895992237074;20324.67204056884;-183.20351854620822;190336.82770620182;386500.0;-196163.17229379818
0.1320000000000001;777134695.0;636377563.0;953700.0;21925.115220858985;21208.20963383067;-233.41787903011573;135554.80715547764;321750.0;-186195.19284452236
0.1360000000000001;866231035.0;723488159.0;216773.0;22274.084108073148;21804.531442423453;-198.10863761261135;87242.22180354082;243333.33333333334;-156091.11152979254
0.1400000000000001;956108094.0;812504883.0;-558751.0;22469.263647532145;22234.661593426503;-207.88778721867493;48794.88486474929;189666.66666666666;-140871.78180191736
0.1440000000000001;1046343452.0;902180786.0;-836950.0;22558.838291075223;22455.44082552012;-156.2328193053072;22393.66088576935;127500.0;-105106.33911423065
0.1480000000000001;1136693871.0;992916870.0;-1558490.0;22587.60370024705;22667.34742704475;-257.22186306559524;7191.352292957163;89166.66666666667;-81975.31437370951
0.1520000000000001;1227048385.0;1083746338.0;-2109079.0;22588.627401730188;22708.965387610835;-265.7916526855115;255.92537078409805;53750.0;-53494.0746292159
0.1560000000000001;1317375191.0;1173960571.0;-1971944.0;22581.700493141292;22499.243124813667;-29.71873024325032;-1731.7271472238644;28583.333333333332;-30315.060480557197
0.16000000000000011;1407678413.0;1263696899.0;-1364768.0;22575.804373265455;22529.464662576218;-25.475750119465374;-1474.0299689592575;-14583.333333333334;13109.303364374076
0.16400000000000012;1497971121.0;1354010010.0;-1360261.0;22573.17587951516;22522.881958897102;-25.09425780471065;-657.1234375733184;-9583.333333333334;8926.209895760016
0.16800000000000012;1588263248.0;1443614502.0;-665562.0;22573.03069523442;22426.39197857518;108.47106556588551;-36.296070185017015;-17750.0;17713.703929814983
0.17200000000000013;1678558962.0;1534180298.0;-938818.0;22573.92752296701;22624.738250142404;-107.93361259546873;224.20693314688833;9583.333333333334;-9359.126400186446
0.17600000000000013;1768858300.0;1624833984.0;-1298952.0;22574.83335641628;22724.65006762506;-229.2000635184595;226.45836231731664;3333.3333333333335;-3106.874971016017
0.18000000000000013;1859159636.0;1714647217.0;-815055.0;22575.332881252165;22408.874861711967;116.50325521404375;124.88120897160115;14916.666666666666;-14791.785457695065
0.18400000000000014;1949461381.0;1804454956.0;-322685.0;22575.435253096544;22507.00277952548;48.662223065286526;25.592961094844213;-11916.666666666666;11942.25962776151
0.18800000000000014;2039762643.0;1894998779.0;-565021.0;22575.314530328324;22550.816748908317;-9.347465722752531;-30.18069205518259;-833.3333333333334;803.1526412781508
0.19200000000000014;2130063199.0;1984850464.0;-115155.0;22575.137971917276;22576.462242215664;-7.984753645454475;-44.13960276178841;-15083.333333333334;15039.193730571546
0.19600000000000015;2220363206.0;2075553589.0;-517295.0;22575.00063773066;22638.829890077708;-94.62235504068667;-34.3335466541248;22166.666666666668;-22201.000213320793
0.20000000000000015;2310662926.0;2165938110.0;-601474.0;22574.928806364114;22614.104248478758;-75.10813289870566;-17.95784163641656;416.6666666666667;-434.62450830308325
0.20400000000000015;2400962567.0;2256031494.0;-394962.0;22574.909333070602;22452.873510180674;98.40173222800877;-4.868323378104833;12333.333333333334;-12338.201656711439
0.20800000000000016;2491262242.0;2345674438.0;261785.0;22574.917517404432;22506.50582278987;84.12278360451819;2.0460834575715126;-22666.666666666668;22668.71275012424
0.21200000000000016;2581561979.0;2436113892.0;121986.0;22574.93318516311;22584.007280827907;-1.7754286954768759;3.916939669579733;-3750.0;3753.9169396695797
0.21600000000000016;2671861765.0;2526657715.0;-122138.0;22574.945586715814;22675.61263392254;-108.01723245171888;3.100388175880653;-666.6666666666666;669.7670548425473
0.22000000000000017;2762161577.0;2617245483.0;-410150.0;22574.951803170712;22537.723929702257;12.605080679441016;1.5541137245236314;29083.333333333332;-29081.77921960881
0.22400000000000017;2852461394.0;2707102661.0;32468.0;22574.953120449027;22550.506135439682;26.38992333801434;0.32931957866821904;-10250.0;10250.329319578668
0.22800000000000017;2942761206.0;2797437744.0;-2801.0;22574.951974458076;22550.166447126994;24.617781899432885;-0.28649773776123766;-666.6666666666666;666.3801689289054
0.23200000000000018;3033061011.0;2887256470.0;478288.0;22574.9502992955;22525.537534546125;78.11240381696916;-0.4187906442894018;-20666.666666666668;20666.24787602238
0.23600000000000018;3123360812.0;2978278198.0;-243631.0;22574.949071178056;22684.304035441244;-123.97057844414667;-0.3070293605560437;17500.0;-17500.307029360556
0.24000000000000019;3213660610.0;3068646240.0;-311869.0;22574.94850310125;22600.55616257051;-44.318480389003525;-0.14201920203049667;5083.333333333333;-5083.4753525353635
0.2440000000000002;3303960408.0;3158750610.0;-116439.0;22574.94842113225;22552.204240957835;15.758272182651126;-0.020492249859671574;6250.0;-6250.02049224986
0.2480000000000002;3394260207.0;3249008789.0;-74820.0;22574.948565504874;22590.408729995477;-19.949456065056438;0.03609315626817988;-9583.333333333334;9583.369426489602
0.25200000000000017;3484560006.0;3339014282.0;219485.0;22574.948743995174;22445.201174280515;142.91640457350513;0.04462257493287325;-5583.333333333333;5583.377955908266
0.25600000000000017;3574859806.0;3429041748.0;491818.0;22574.948866528328;22584.18513193526;20.272583492307604;0.03063328858843306;-10583.333333333334;10583.363966621922
0.2600000000000002;3665159606.0;3520469971.0;-636606.0;22574.948918993483;22814.459520904937;-277.70708937312156;0.013116288755554706;16000.0;-15999.986883711244
0.2640000000000002;3755459406.0;3610415039.0;-281874.0;22574.948923095253;22508.38091383746;49.655532774504536;0.0010254425433231518;7750.0;-7749.998974557457
0.2680000000000002;3845759206.0;3700458984.0;-26019.0;22574.94890634785;22489.952438270488;83.43534204183743;-0.004186850674159359;6583.333333333333;-6583.337520184007
0.2720000000000002;3936059006.0;3790557861.0;174904.0;22574.94888784479;22557.95413780754;27.489018623618904;-0.00462576554127736;-20916.666666666668;20916.662040901127
0.2760000000000002;4026358803.0;3880739136.0;293429.0;22574.948198135684;22551.20510030705;41.34953880276953;-0.1724272760839085;-9833.333333333334;9833.16090605725
0.2800000000000002;4116658579.0;3971513672.0;-181308.0;22574.943133681074;22737.06190915772;-172.99177466340552;-1.2661136524911853;7333.333333333333;-7334.599446985824
0.2840000000000002;4206958283.0;4062249756.0;-617604.0;22574.9247879839;22612.010560744497;-74.12060654464949;-4.586424293847813;23333.333333333332;-23337.91975762718
0.2880000000000002;4297256928.0;4152090454.0;-158554.0;22574.660196697077;22513.882870247435;51.539779325896234;-66.14782170527178;-4083.3333333333335;4017.1855116280617
0.2920000000000002;4387548665.0;4242112427.0;118758.0;22572.933084343793;22499.92661550273;82.01885366447095;-431.7780883211526;-6916.666666666667;6484.888578345514
0.2960000000000002;4477816032.0;4332260742.0;266355.0;22566.840678213503;22555.334572486503;34.623701488158986;-1523.101532572582;-21500.0;19976.898467427418
0.3000000000000002;4568024246.0;4422639771.0;169441.0;22552.052447416307;22575.53601016851;5.15811013739949;-3697.0576992989663;6833.333333333333;-10530.391032632298
0.3040000000000002;4658118070.0;4513485718.0;-432449.0;22523.455013660307;22736.953815401776;-201.88768194107615;-7149.358439000025;9500.0;-16649.358439000025
0.3080000000000002;4748020123.0;4603677979.0;-461504.0;22475.512184455543;22512.002092104118;1.1083294526433747;-11985.707301190814;14666.666666666666;-26652.37396785748
0.3120000000000002;4837629088.0;4693079224.0;155712.0;22402.24030684617;22364.473662010034;149.48305206571604;-18317.969402342897;-14083.333333333334;-4234.636069009563
0.3160000000000002;4926812498.0;4782843018.0;178890.0;22295.85142675954;22427.3070404667;30.168304404676746;-26597.22002165836;-18666.666666666668;-7930.553354991691
0.32000000000000023;5015392898.0;4872535400.0;-71536.0;22145.098751125945;22429.319268196898;-73.12332257098751;-37688.16890839844;-21500.0;-16188.168908398438
0.32400000000000023;5103138744.0;4961826782.0;-416099.0;21936.46044124715;22332.97903166549;-121.24125293985708;-52159.57746969889;-3500.0;-48659.57746969889
0.32800000000000024;5189769354.0;5050579834.0;-916105.0;21657.65152861492;22161.948967160002;-153.65502946863853;-69702.22815805755;-10083.333333333334;-59618.894824724215
0.33200000000000024;5274969862.0;5137860718.0;-888427.0;21300.125995639293;21775.263126363825;-1.429192489136767;-89381.38324390638;-33666.666666666664;-55714.71657723972
0.33600000000000024;5358408253.0;5223521118.0;-478695.0;20859.596836840894;21442.09100397703;46.71918312193884;-110132.28969959982;-67000.0;-43132.28969959982
0.34000000000000025;5439751123.0;5308324585.0;-771926.0;20335.716607795006;21174.304433370817;-93.0620497571872;-130970.05726147199;-78916.66666666667;-52053.39059480532
0.34400000000000025;5518676493.0;5391452637.0;-1282104.0;19731.34137766512;20758.91641947016;-181.3749222775623;-151093.80753247114;-85833.33333333333;-65260.47419913782
0.34800000000000025;5594883063.0;5472740479.0;-2173298.0;19051.64174077786;20269.40587113798;-300.6428680094177;-169924.90922181515;-84416.66666666667;-85508.24255514846
0.35200000000000026;5668101037.0;5550358887.0;-1930133.0;18304.492563311218;19386.311131479324;-36.72675841907767;-186787.2943666607;-122166.66666666667;-64620.627699994046
0.35600000000000026;5738106720.0;5625692139.0;-2225816.0;17501.41988689076;18783.87062093683;-158.0281997587481;-200768.1691051148;-157250.0;-43518.16910511479
0.36000000000000026;5804731907.0;5697224121.0;-1795936.0;16656.296065879324;17821.10210371581;61.60635861700575;-211280.9552528588;-182083.33333333334;-29197.62191952546
0.36400000000000027;5867861950.0;5765800781.0;-1688405.0;15782.50986306984;17151.617303587056;-81.87460270417796;-218446.55070237105;-201083.33333333334;-17363.2173690377
0.36800000000000027;5927426778.0;5831301270.0;-1929669.0;14891.20646909107;16300.422677606855;-101.39743084338807;-222825.8484946923;-192250.0;-30575.84849469231
0.3720000000000003;5983389187.0;5893181763.0;-2073192.0;13990.601478770486;15470.400188279931;-160.54987327508024;-225151.24758014598;-208583.33333333334;-16567.91424681265
0.3760000000000003;6035732088.0;5952332153.0;-3066167.0;13085.724732470004;14700.575141678799;-345.1920184728151;-226219.1865751206;-191333.33333333334;-34885.85324178726
0.3800000000000003;6084447340.0;6006236572.0;-2422147.0;12178.812195537545;13445.465955987256;46.31419393939541;-226728.1342331148;-223166.66666666666;-3561.4675664481583
0.3840000000000003;6129528283.0;6056987915.0;-2247687.0;11270.235412221306;12664.382906803958;-67.7940325339896;-227144.19582905975;-236666.66666666666;9522.470837606903
0.3880000000000003;6170966156.0;6103806152.0;-1770363.0;10359.467702479958;11651.262588807538;66.40526930346823;-227691.92743533675;-244916.66666666666;17224.73923132989
0.3920000000000003;6208749216.0;6147399902.0;-1706296.0;9445.764609600303;10899.282257355035;-87.2060792110533;-228425.77321991394;-239416.66666666666;10990.893446752722
0.3960000000000003;6242864110.0;6187620850.0;-1917101.0;8528.723045181818;9971.502527269968;-83.99335495671767;-229260.39110462126;-210000.0;-19260.39110462125
0.4000000000000003;6273300530.0;6223738403.0;-1684550.0;7609.104701404944;9043.30792147686;-56.85523433423987;-229904.58594421853;-227583.33333333334;-2321.2526108851816
0.4040000000000003;6300058379.0;6257076416.0;-2344633.0;6689.461926680361;8264.795310394653;-235.99125906722475;-229910.69368114564;-212333.33333333334;-17577.36034781229
0.4080000000000003;6323157297.0;6285899048.0;-2167787.0;5774.729138110632;7169.642062398177;-49.84018302011009;-228683.19714243215;-229500.0;816.8028575678363
0.4120000000000003;6342656194.0;6311184082.0;-2124127.0;4874.724045583646;6308.1745660864635;-103.44898549102254;-225001.27313174654;-230000.0;4998.7268682534705
0.4160000000000003;6358683020.0;6332926025.0;-2173065.0;4006.7063753267535;5377.727784418296;-84.86074048199316;-217004.41756422323;-233916.66666666666;16912.24910244344
0.4200000000000003;6371454925.0;6350850220.0;-1953891.0;3192.9760236367674;4446.990459942554;-28.381850500671135;-203432.58792249652;-235333.33333333334;31900.745410836833
0.4240000000000003;6381274276.0;6365593872.0;-1940898.0;2454.8377117883483;3651.3235709421374;-78.61640448704611;-184534.57796210478;-221916.66666666666;37382.08870456188
0.4280000000000003;6388507798.0;6377047119.0;-1773810.0;1808.3803438999305;2835.7663461939433;-37.111278514511014;-161614.34197210445;-219083.33333333334;57468.99136122889
0.43200000000000033;6393560661.0;6385984497.0;-1899778.0;1263.2156684344036;2211.2480219174586;-122.38220642951183;-136291.16886638172;-201000.0;64708.831133618274
0.43600000000000033;6396850951.0;6392065430.0;-1596635.0;822.5724515371737;1477.939239084989;22.281565330827107;-110160.80422430747;-181333.33333333334;71172.52910902587
0.44000000000000034;6398789692.0;6396042480.0;-1206877.0;484.68521268536796;1011.3648545394019;7.924367715837207;-84471.80971295144;-171500.0;87028.19028704856
0.44400000000000034;6399768234.0;6398684692.0;-1084340.0;244.63560092831034;631.8421981060357;-5.715263436494297;-60012.40293926441;-140500.0;80487.5970607356
0.44800000000000034;6400140993.0;6399788818.0;-622509.0;93.18971242526544;270.92616025305165;83.2124001859321;-37861.472125761225;-119416.66666666667;81555.19454090545
0.45200000000000035;6400195939.0;6400222778.0;-312485.0;13.73645527443207;115.84047399289162;51.40663917980578;-19863.314287708345;-86166.66666666667;66303.35237895833
0.45600000000000035;6400130510.0;6400343628.0;-183034.0;-16.357211821395463;29.573523865170777;22.019551809804874;-7523.416773956883;-64000.0;56476.58322604312
0.46000000000000035;6400052466.0;6400332642.0;-162967.0;-19.511169785876717;1.6564755931161343;-9.16416268007066;-788.4894911203136;-36916.666666666664;36128.17717554635
0.46400000000000036;6400002536.0;6400316162.0;-216213.0;-12.482342935973554;-3.010610962741077;-27.393545830316985;1757.206712475791;-14416.666666666666;16173.873379142457
0.46800000000000036;6399983483.0;6400316162.0;-283036.0;-4.763344942741651;-0.32341856487840415;-33.36461097802449;1929.7494983079757;-5750.0;7679.749498307976
0.47200000000000036;6399983693.0;6400305176.0;-309903.0;0.05262688676390339;-2.90350450822711;-25.153740865120447;1203.9929573763886;-583.3333333333334;1787.326290709722
0.47600000000000037;6399990995.0;6400305176.0;-321498.0;1.8255404777850894;-0.44996541466191414;-21.739030451140803;443.2283977552965;166.66666666666666;276.56173108862987
0.48000000000000037;6399997907.0;6400305176.0;-318589.0;1.728002310223712;0.9035274880044163;-19.29152664911238;-24.384541890344337;83.33333333333333;-107.71787522367767
0.4840000000000004;6400001738.0;6400316162.0;-322470.0;0.9576186553936143;1.4398775179423393;-19.01159756513546;-192.59591370752443;166.66666666666666;-359.2625803741911
0.4880000000000004;6400002716.0;6400316162.0;-316777.0;0.24451300457715464;0.29031434406340123;-17.8738056029879;-178.27641270411493;83.33333333333333;-261.60974603744825
0.4920000000000004;6400002108.0;6400310669.0;-308566.0;-0.15209100197228445;0.16641181556507945;-18.000974441693064;-99.15100163735977;-83.33333333333333;-15.817668304026443
0.4960000000000004;6400001073.0;6400305176.0;-302707.0;-0.2585969580375973;-2.0854924588799477;-15.985483474799132;-26.62648901632821;-166.66666666666666;140.04017765033845
