Zeit[sec];Sollposition[°];Istposition[°];Positionsschleppfehler[°];Sollgeschwindigkeit[°/s];Istgeschwindigkeit[°/s];Geschwindigkeitsdifferenz[°/s];Sollbeschleunigung[°/s*s];Istbeschleunigung[°/s*s];Beschleunigungsdifferenz[°/s*s]
0.0;8729941493.0;8729934082.0;7481.0;-0.01041923566991948;-5.594721133820713;6.036539752247065;0.312631958135726;83.33333333333333;-83.0207013751976
0.004;8729941469.0;8729945068.0;-3550.0;-0.006024794476747454;0.9660493208989501;-1.1901795470967795;1.0986102982930064;83.33333333333333;-82.23472303504032
0.008;8729941461.0;8729950562.0;-9079.0;-0.002006126568986968;6.61700317941606;-7.170427415158814;1.0046669769401215;0.0;1.0046669769401215
0.012;8729941463.0;8729939575.0;1890.0;0.00033869490548768885;2.3496375665664675;-2.240694770680781;0.5862053686186641;0.0;0.5862053686186641
0.016;8729941467.0;8729923096.0;18366.0;0.0011231478997980788;-6.239808306336403;7.34066831792401;0.1961132485775975;0.0;0.1961132485775975
0.02;8729941471.0;8729945068.0;-3603.0;0.0009899788346067135;-1.2866975706145167;1.0711535497005493;-0.03329226629784134;83.33333333333333;-83.36662559963116
0.024;8729941473.0;8729950562.0;-9093.0;0.0005478056704514316;6.147013989083469;-6.6915282370627445;-0.11054329103882046;-166.66666666666666;166.55612337562783
0.028;8729941474.0;8729939575.0;1897.0;0.00015706165560485944;1.4586488372385502;-1.3440133928645435;-0.09768600371164304;83.33333333333333;-83.43101933704497
0.032;8729941474.0;8729934082.0;7391.0;-5.994905816672871e-05;-2.7697753149122;3.2136307876180608;-0.05425267844289704;-83.33333333333333;83.27908065489044
0.036000000000000004;8729941394.0;8729945068.0;-3594.0;-0.01993991333574454;6.759341199785471;-6.974907890012781;-4.969991069394453;0.0;-4.969991069394453
0.04000000000000001;8729940603.0;8729923096.0;18346.0;-0.19759028977164075;-3.5576875077560546;4.650506735019564;-44.412594108974055;-83.33333333333333;38.920739224359274
0.04400000000000001;8729936720.0;8729934082.0;6998.0;-0.9707574759750925;-3.3067405934333802;3.6363615657985426;-193.29179655086295;83.33333333333333;-276.62512988419627
0.048000000000000015;8729923884.0;8729950562.0;-11495.0;-3.2090208077479;7.760264689743519;-8.953062768013332;-559.5658329432018;0.0;-559.5658329432018
0.05200000000000002;8729891310.0;8729923096.0;8557.0;-8.143645137370232;-2.8345583492070436;1.4943147115561861;-1233.656082405583;0.0;-1233.656082405583
0.05600000000000002;8729823145.0;8729923096.0;-12053.0;-17.041140400237516;-0.09279374949634075;-5.7827936772334025;-2224.3738157168214;-166.66666666666666;-2057.7071490501544
0.060000000000000026;8729699951.0;8729895630.0;-31157.0;-30.798656494606515;-8.79478039417416;-4.717088777136633;-3439.3790235922497;0.0;-3439.3790235922497
0.06400000000000003;8729500603.0;8729829712.0;-55013.0;-49.83696146299406;-21.406984885938467;-4.337441923295199;-4759.576242096887;-750.0;-4009.5762420968867
0.06800000000000003;8729135971.0;8729730835.0;-109201.0;-91.15786214978134;-22.96251741911471;-21.855979076144166;-10330.225171696819;-1916.6666666666667;-8413.558505030152
0.07200000000000004;8728705184.0;8729511108.0;-153909.0;-107.69684027044293;-57.553381702624264;-17.789658675458696;-4134.744530165399;-2833.3333333333335;-1301.4111968320656
0.07600000000000004;8728136119.0;8729077148.0;-109842.0;-142.26611998947922;-110.51936721327156;6.4556533126554;-8642.319929759073;-6000.0;-2642.3199297590722
0.08000000000000004;8727407516.0;8728588257.0;-106175.0;-182.1509520066505;-124.90550305009634;-2.771108409060247;-9971.20800429282;-7833.333333333333;-2137.874670959486
0.08400000000000005;8726500001.0;8727929077.0;-78504.0;-226.87863042764607;-169.09760121291131;6.510082902427541;-11181.919605248893;-8666.666666666666;-2515.252938582227
0.08800000000000005;8725397844.0;8727094116.0;-42147.0;-275.5392846678689;-206.15468901150675;3.9747915684751547;-12165.16356005571;-9083.333333333334;-3081.830226722376
0.09200000000000005;8724089709.0;8726127319.0;-58990.0;-327.0336710853329;-248.28888684275003;-1.1602564276311966;-12873.596604366;-8583.333333333334;-4290.263271032666
0.09600000000000006;8722568430.0;8724929810.0;-44164.0;-380.31982678191736;-300.4847726079002;2.1640493461385404;-13321.53892414611;-11083.333333333334;-2238.2055908127772
0.10000000000000006;8720829915.0;8723578491.0;-84281.0;-434.6285981252241;-345.6428417452276;-7.273092557218945;-13577.19283582668;-10500.0;-3077.192835826679
0.10400000000000006;8718871741.0;8721963501.0;-75452.0;-489.5436098834116;-409.1689444172308;3.101641940653053;-13728.75293954688;-12583.333333333334;-1145.4196062135456
0.10800000000000007;8716691956.0;8720134277.0;-70562.0;-544.9461077528136;-456.1986993672177;-4.118347416029792;-13850.624467350513;-13500.0;-350.62446735051367
0.11200000000000007;8714288356.0;8718145752.0;-126789.0;-600.8998778958016;-506.3372504314259;-12.458156546186046;-13988.442535746997;-13000.0;-988.4425357469979
0.11600000000000008;8711658193.0;8715866089.0;-114351.0;-657.5407876395717;-570.1396350612044;-3.5277042647264807;-14160.227435942517;-13750.0;-410.22743594251665
0.12000000000000008;8708798158.0;8713482056.0;-222436.0;-715.0086591704642;-602.0121851607189;-34.363234312328245;-14366.967882723116;-12333.333333333334;-2033.6345493897827
0.12400000000000008;8705704478.0;8710751953.0;-212309.0;-773.4199833614335;-687.7735378393754;-4.959022596149907;-14602.831047742342;-13666.666666666666;-936.1643810756757
0.12800000000000009;8702373022.0;8707796631.0;-208311.0;-832.8641735345708;-737.9637271223291;-12.36604360313504;-14861.047543284314;-15000.0;138.95245671568546
0.1320000000000001;8698799368.0;8704621582.0;-219848.0;-893.4134541486447;-801.3564273202867;-8.480874776597148;-15137.320153518487;-14833.333333333334;-303.98682018515365
0.1360000000000001;8694978831.0;8701210327.0;-234684.0;-955.13402756835;-854.8839571137876;-15.719794300001467;-15430.143354926315;-16000.0;569.8566450736848
0.1400000000000001;8690906467.0;8697628784.0;-323261.0;-1018.0910796033018;-905.609991356045;-31.315584828479928;-15739.263008737937;-12750.0;-2989.2630087379357
0.1440000000000001;8686577058.0;8693662720.0;-276133.0;-1082.3521317228626;-986.2971565414592;-10.004694469980564;-16065.263029890219;-15750.0;-315.26302989021815
0.1480000000000001;8681985106.0;8689553833.0;-340049.0;-1147.988044617043;-1032.3157974377275;-31.287836275204654;-16408.97822354509;-14916.666666666666;-1492.311556878425
0.1520000000000001;8677124823.0;8685148315.0;-366527.0;-1215.0704732406227;-1100.993130302094;-28.99770571990416;-16770.607155894937;-16250.0;-520.6071558949361
0.1560000000000001;8671990136.0;8680534058.0;-449073.0;-1283.6716875899124;-1158.9127460074128;-42.232227968855796;-17150.30358732241;-14750.0;-2400.303587322412
0.16000000000000011;8666574677.0;8675491333.0;-373856.0;-1353.8648285052527;-1269.9027933812663;5.594711650354611;-17548.285228835084;-16333.333333333334;-1214.9518955017502
0.16400000000000012;8660871789.0;8670245361.0;-372285.0;-1425.7218895778528;-1306.1433674955965;-27.293943459086904;-17964.26526815003;-19250.0;1285.7347318499706
0.16800000000000012;8654874530.0;8664790649.0;-445348.0;-1499.3148009790539;-1369.3599025615529;-39.30471995739708;-18398.22785030026;-17083.333333333332;-1314.8945169669269
0.17200000000000013;8648575663.0;8658912964.0;-385580.0;-1574.7164760068256;-1466.5196047769339;-11.094486815051368;-18850.41875694293;-18000.0;-850.4187569429291
0.17600000000000013;8641967668.0;8652826538.0;-414271.0;-1651.9986568906538;-1522.9464245426805;-30.689013968476274;-19320.545220957058;-16750.0;-2570.545220957058
0.18000000000000013;8635042734.0;8646372070.0;-379467.0;-1731.2334272300698;-1620.6467147699968;-7.037151733528617;-19808.692584853987;-19250.0;-558.6925848539863
0.18400000000000014;8627792757.0;8639648438.0;-387680.0;-1812.4943782942087;-1679.8529431314691;-26.369036876804785;-20315.237766034727;-19500.0;-815.237766034727
0.18800000000000014;8620209342.0;8632523804.0;-314998.0;-1895.853607908186;-1777.9028661055045;-3.9848722866713615;-20839.80740349432;-19500.0;-1339.8074034943193
0.19200000000000014;8612283807.0;8625206909.0;-378378.0;-1981.3836949926451;-1840.6576279908493;-27.11392397221198;-21382.521771114796;-19750.0;-1632.5217711147957
0.19600000000000015;8604007169.0;8617428589.0;-317165.0;-2069.1592086365054;-1956.6141483043805;8.307730260723247;-21943.878410965055;-19416.666666666668;-2527.2117442983877
0.20000000000000015;8595370158.0;8609436035.0;-387348.0;-2159.2526696167297;-1998.3528065683097;-40.57223523779999;-22523.365245056084;-20750.0;-1773.365245056084
0.20400000000000015;8586363270.0;8600954590.0;-323366.0;-2251.7220183061618;-2131.0209191537574;7.253410599228118;-23117.33717235802;-20750.0;-2367.3371723580203
0.20800000000000016;8576977022.0;8592275391.0;-425717.0;-2346.5618030148494;-2171.966888993293;-48.96356117227606;-23709.9461771719;-22416.666666666668;-1293.2795105052328
0.21200000000000016;8567202421.0;8582975464.0;-280921.0;-2443.6502790416707;-2335.381415712934;29.743457231366847;-24272.11900670534;-21500.0;-2772.1190067053385
0.21600000000000016;8557031672.0;8573532715.0;-376173.0;-2542.687134756892;-2373.4900074301772;-33.58053745830148;-24759.213928805366;-25250.0;490.78607119463413
0.22000000000000017;8546459773.0;8563584595.0;-357445.0;-2642.974466634223;-2487.449260708988;-16.345406383682985;-25071.832969332718;-22500.0;-2571.8329693327178
0.22400000000000017;8535487012.0;8553224487.0;-324815.0;-2743.190262975726;-2599.250171298422;-2.1079294818837297;-25053.949085375734;-24833.333333333332;-220.61575204240216
0.22800000000000017;8524120801.0;8542567749.0;-396561.0;-2841.552606846652;-2655.7858567374274;-50.12864618912636;-24590.5859677315;-23916.666666666668;-673.9193010648314
0.23200000000000018;8512375685.0;8531405640.0;-360861.0;-2936.27878181387;-2788.9824821069205;-14.271371370255565;-23681.54374180449;-24583.333333333332;901.7895915288427
0.23600000000000018;8500272003.0;8519869995.0;-339351.0;-3025.920354763129;-2907.267904082123;8.373130816097273;-22410.39323731479;-24333.333333333332;1922.9400960185394
0.24000000000000019;8487834136.0;8508026733.0;-381151.0;-3109.466649342248;-2965.340737757478;-28.79355089975934;-20886.573644779673;-24750.0;3863.4263552203265
0.2440000000000002;8475088765.0;8495727539.0;-316037.0;-3186.3426273486984;-3062.379362721149;-15.102768840206863;-19218.994501612655;-25333.333333333332;6114.338831720676
0.2480000000000002;8462063380.0;8483093262.0;-239589.0;-3256.3459121780047;-3173.075774199706;19.243189834874556;-17500.821207326568;-23000.0;5499.178792673433
0.25200000000000017;8448785102.0;8470294189.0;-295107.0;-3319.569426470752;-3209.515925644282;-21.837885154322976;-15805.878573186874;-20916.666666666668;5110.788093479794
0.25600000000000017;8435279009.0;8457187500.0;-312430.0;-3376.5231685517506;-3291.268250005644;-8.48042222498134;-14238.435520249595;-17666.666666666668;3428.2311464170725
0.2600000000000002;8421565669.0;8443789673.0;-281724.0;-3428.3348273848155;-3337.2936905658394;-21.3899944588602;-12952.914708266235;-18500.0;5547.085291733765
0.2640000000000002;8407659402.0;8430221558.0;-300538.0;-3476.566533003858;-3383.343041244872;-31.421207144605432;-12057.926404760565;-15083.333333333334;3025.406928572769
0.2680000000000002;8393568434.0;8416373291.0;-240889.0;-3522.7417327322923;-3463.9294095732384;2.3217084693637844;-11543.79993210864;-15416.666666666666;3872.866734558025
0.2720000000000002;8379296334.0;8402409668.0;-255633.0;-3568.024874583621;-3497.3752413180473;-12.55440924045206;-11320.785462832191;-12583.333333333334;1262.5478705011428
0.2760000000000002;8364843767.0;8388198853.0;-206520.0;-3613.141496172624;-3572.9454355411194;20.129002424871942;-11279.155397250746;-12166.666666666666;887.5112694159188
0.2800000000000002;8350210026.0;8373850708.0;-200966.0;-3658.435122289855;-3592.665593712628;-5.039945474576598;-11323.406529307704;-13333.333333333334;2009.9268040256302
0.2840000000000002;8335394066.0;8359359741.0;-233342.0;-3703.989939266637;-3621.7791708710606;-23.056705139517817;-11388.704244195538;-10833.333333333334;-555.3709108622033
0.2880000000000002;8320395013.0;8344561157.0;-139684.0;-3749.7629372938723;-3688.0411584927815;3.428615406183326;-11443.249506808797;-12750.0;1306.7504931912026
0.2920000000000002;8305212292.0;8329779053.0;-245066.0;-3795.6801554146264;-3688.1047361512037;-48.47051887438238;-11479.304530188529;-9666.666666666666;-1812.6378635218625
0.2960000000000002;8289845557.0;8314584961.0;-121776.0;-3841.6836181726753;-3787.4993136585467;12.49255799663797;-11500.865689512239;-11083.333333333334;-417.5323561789046
0.3000000000000002;8274294578.0;8299407349.0;-198767.0;-3887.7444084188405;-3791.9756382431574;-33.60114515097666;-11515.1975615413;-11250.0;-265.19756154129936
0.3040000000000002;8258559148.0;8283861694.0;-91819.0;-3933.8573785825283;-3890.717996911168;25.532406645213996;-11528.24254092195;-10916.666666666666;-611.5758742552853
0.3080000000000002;8242639032.0;8268327026.0;-180182.0;-3980.028760793977;-3873.9311730031745;-42.63734012750456;-11542.845552862218;-13416.666666666666;1873.821113804448
0.3120000000000002;8226533961.0;8252495728.0;-156458.0;-4026.267725475848;-3976.9030424754246;15.622145458478371;-11559.741170467645;-8166.666666666667;-3393.074503800979
0.3160000000000002;8210243630.0;8236499634.0;-152730.0;-4072.5825414108836;-3985.9958345623836;-21.2592178014429;-11578.703983758942;-14333.333333333334;2754.629349574392
0.32000000000000023;8193767715.0;8220360718.0;-191254.0;-4118.978435026948;-4061.441018679969;5.6058837886726;-11598.973404016193;-7666.666666666667;-3932.306737349525
0.32400000000000023;8177105880.0;8203903198.0;-96561.0;-4165.458583940351;-4100.360756401155;3.860683982008595;-11620.037228350611;-16416.666666666668;4796.629438316057
0.32800000000000024;8160257776.0;8187418213.0;-160118.0;-4212.02578716739;-4145.535194679886;-1.2071221997439352;-11641.800806759875;-8416.666666666666;-3225.1341400932088
0.33200000000000024;8143223046.0;8170702515.0;-179018.0;-4258.68243507872;-4172.2050416871125;-22.185446097679232;-11664.161977832464;-14250.0;2585.838022167536
0.33600000000000024;8126001320.0;8153893433.0;-290943.0;-4305.431171370779;-4221.685664937321;-26.02247941042151;-11687.184073014805;-6750.0;-4937.184073014805
0.34000000000000025;8108592218.0;8136765747.0;-271034.0;-4352.275438116834;-4280.319893631645;-12.886346141514878;-11711.066686513732;-12500.0;788.9333134862682
0.34400000000000025;8090995342.0;8119500732.0;-300941.0;-4399.218689707036;-4323.994507974927;-17.79222484226284;-11735.812897550431;-11083.333333333334;-652.4795642170975
0.34800000000000025;8073210283.0;8101972046.0;-254709.0;-4446.264498876908;-4368.524602303043;-17.37116345564391;-11761.452292467993;-15083.333333333334;3321.8810408653408
0.35200000000000026;8055236615.0;8084273071.0;-226121.0;-4493.416872235795;-4429.271770214059;-1.8920496233758968;-11788.093339721854;-12083.333333333334;295.2399936114798
0.35600000000000026;8037073895.0;8066425781.0;-237568.0;-4540.679654601638;-4457.208022668034;-21.730076451822242;-11815.695591460553;-12666.666666666666;850.9710752061128
0.36000000000000026;8018721668.0;8048364258.0;-223564.0;-4588.056708089371;-4512.651879128866;-12.641504396367054;-11844.263371933266;-10666.666666666666;-1177.5967052666
0.36400000000000027;8000179458.0;8030176392.0;-272447.0;-4635.552247297839;-4549.165321834557;-26.36848384314635;-11873.884802117118;-11333.333333333334;-540.551468783784
0.36800000000000027;7981446775.0;8011680908.0;-203405.0;-4683.170402012572;-4627.023857320287;8.209209975380872;-11904.538678683139;-11166.666666666666;-737.8720120164726
0.3720000000000003;7962523113.0;7993070068.0;-209181.0;-4730.915370997313;-4675.5184878735845;8.813820440091149;-11936.24224618543;-11916.666666666666;-19.575579518763334
0.3760000000000003;7943407945.0;7974179077.0;-125477.0;-4778.791686371229;-4718.814447017591;9.46430344293367;-11969.078843478883;-13750.0;1780.9211565211172
0.3800000000000003;7924100729.0;7955200195.0;-145067.0;-4826.803855540804;-4761.379077576213;3.057231278195104;-12003.04229239373;-11833.333333333334;-169.7089590603955
0.3840000000000003;7904600902.0;7936040039.0;-175101.0;-4874.95647600998;-4773.081128138892;-34.972167832452214;-12038.155117294082;-13083.333333333334;1045.1782160392522
0.3880000000000003;7884907883.0;7916649170.0;-166690.0;-4923.254443099413;-4853.7034778779;-1.912217990490717;-12074.491772358215;-9083.333333333334;-2991.158439024881
0.3920000000000003;7865021072.0;7897181396.0;-274212.0;-4971.702666587832;-4879.235658682;-31.04078236274745;-12112.055872104747;-11083.333333333334;-1028.7225387714134
0.3960000000000003;7844939846.0;7877356567.0;-218106.0;-5020.306163206438;-4952.8630140652285;-2.403756742990481;-12150.874154651547;-10666.666666666666;-1484.2074879848806
0.4000000000000003;7824663564.0;7857410889.0;-235186.0;-5069.070222933828;-4997.777543866072;-7.022933392041523;-12191.014931847349;-13250.0;1058.9850681526514
0.4040000000000003;7804191563.0;7837146606.0;-128327.0;-5118.000187273692;-5043.552862008203;-3.502322828645447;-12232.491084966114;-15666.666666666666;3434.1755817005524
0.4080000000000003;7783523155.0;7816695557.0;-30016.0;-5167.1015245476;-5122.522128341991;32.53670599048746;-12275.334318477007;-13000.0;724.6656815229926
0.4120000000000003;7762657635.0;7796140137.0;-23323.0;-5216.379961896253;-5148.701346211288;10.120564926661245;-12319.609337163229;-13666.666666666666;1347.0573295034374
0.4160000000000003;7741594268.0;7775397949.0;-26543.0;-5265.841310782583;-5180.773487296999;-7.17104453563843;-12365.337221582422;-10000.0;-2365.337221582422
0.4200000000000003;7720332301.0;7754490967.0;-62370.0;-5315.4915297930775;-5226.075988219079;-13.368084833165085;-12412.554752623691;-11250.0;-1162.5547526236915
0.4240000000000003;7698870953.0;7733375244.0;-87596.0;-5365.3368299143285;-5277.643920222201;-12.848874022235577;-12461.325030312764;-10583.333333333334;-1877.9916969794303
0.4280000000000003;7677209418.0;7711951904.0;-4111.0;-5415.383535114969;-5357.138270996593;21.928117790334;-12511.676300160161;-12083.333333333334;-428.34296682682725
0.43200000000000033;7655346864.0;7690413208.0;-4966.0;-5465.638137710034;-5383.851367394381;-1.334096846846478;-12563.65064876627;-13916.666666666666;1353.016017900396
0.43600000000000033;7633282434.0;7668737183.0;-69004.0;-5516.107384067038;-5422.022537854482;-17.133159547882315;-12617.311589250903;-12250.0;-367.3115892509031
0.44000000000000034;7611015240.0;7646868896.0;-142134.0;-5566.798159054951;-5468.462441678573;-25.419543067969244;-12672.693746978211;-10750.0;-1922.6937469782115
0.44400000000000034;7588544369.0;7624780884.0;-197762.0;-5617.717538596888;-5541.376713036929;-6.398773029056429;-12729.844885484226;-9333.333333333334;-3396.5115521508924
0.44800000000000034;7565868876.0;7602473145.0;-236783.0;-5668.872862314442;-5579.485796674844;-21.41106449351173;-12788.830929388496;-13416.666666666666;627.8357372781702
0.45200000000000035;7542987789.0;7579962158.0;-276603.0;-5720.271631380175;-5623.17548532537;-31.122164084155884;-12849.692266433294;-13250.0;400.3077335667058
0.45600000000000035;7519900101.0;7557110596.0;-180850.0;-5771.921562602325;-5722.387296632238;22.584363713867788;-12912.482805537593;-14916.666666666666;2004.1838611290732
0.46000000000000035;7496604777.0;7534182129.0;-214180.0;-5823.8306541226875;-5742.741659241375;-10.55799817566185;-12977.272880090595;-13833.333333333334;856.0604532427387
0.46400000000000036;7473100748.0;7511083374.0;-284226.0;-5876.007086876173;-5768.867498237837;-40.38613175698356;-13044.10818837141;-13083.333333333334;39.225144961923434
0.46800000000000036;7449386910.0;7487748413.0;-326121.0;-5928.459284390846;-5842.27482176869;-21.506077850855036;-13113.049378668165;-11000.0;-2113.0493786681654
0.47200000000000036;7425462125.0;7464122314.0;-286014.0;-5981.195977294138;-5913.579626956016;-0.07905538342947693;-13184.173225823088;-11833.333333333334;-1350.8398924897538
