Zeit[sec];Sollposition[°];Istposition[°];Positionsschleppfehler[°];Sollgeschwindigkeit[°/s];Istgeschwindigkeit[°/s];Geschwindigkeitsdifferenz[°/s];Sollbeschleunigung[°/s*s];Istbeschleunigung[°/s*s];Beschleunigungsdifferenz[°/s*s]
0.0;-9979199999.0;-9979199995.0;-4.0;0.0;-0.00023999999999999998;0.0;0.0;0.0;0.0
0.004;-9979199999.0;-9979199995.0;-4.0;0.0;-0.00023999999999999998;0.0;0.0;0.0;0.0
0.008;-9979199999.0;-9979199995.0;-4.0;0.0;-0.00023999999999999998;0.0;0.0;0.0;0.0
0.012;-9979199999.0;-9979199995.0;-4.0;0.0;-0.00023999999999999998;0.0;0.0;0.0;0.0
0.016;-9979199999.0;-9979199995.0;-4.0;0.0;-0.00023999999999999998;0.0;0.0;0.0;0.0
0.02;-9979199999.0;-9979199995.0;-4.0;0.0;-0.00023999999999999998;0.0;0.0;0.0;0.0
0.024;-9979199999.0;-9979199995.0;-4.0;0.0;-0.00023999999999999998;0.0;0.0;0.0;0.0
0.028;-9979199999.0;-9979199995.0;-4.0;0.0;-0.00023999999999999998;0.0;0.0;0.0;0.0
0.032;-9979199999.0;-9979199995.0;-4.0;0.0;-0.00023999999999999998;0.0;0.0;0.0;0.0
0.036000000000000004;-9979199999.0;-9979199995.0;-4.0;0.0;-0.00023999999999999998;0.0;0.0;0.0;0.0
0.04000000000000001;-9979199999.0;-9979199995.0;-4.0;0.0;-0.00023999999999999998;0.0;0.0;0.0;0.0
0.04400000000000001;-9979199999.0;-9979199995.0;-4.0;0.0;-0.00023999999999999998;0.0;0.0;0.0;0.0
0.048000000000000015;-9979199999.0;-9979199995.0;-4.0;0.0;-0.00023999999999999998;0.0;0.0;0.0;0.0
0.05200000000000002;-9979199999.0;-9979199995.0;-4.0;0.0;-0.00023999999999999998;0.0;0.0;0.0;0.0
0.05600000000000002;-9979199999.0;-9979199995.0;-4.0;0.0;-0.00023999999999999998;0.0;0.0;0.0;0.0
0.060000000000000026;-9979200040.0;-9979199995.0;-4.0;-0.010131406824772413;-0.00023999999999999998;0.0;-2.532851706193103;0.0;-2.532851706193103
0.06400000000000003;-9979200444.0;-9979199995.0;-45.0;-0.10096628099892334;-0.00023999999999999998;-0.012591406824772411;-22.70871854353773;0.0;-22.70871854353773
0.06800000000000003;-9979202429.0;-9979200046.0;-398.0;-0.4962697464425211;-0.012831406824772412;-0.11201487417415093;-98.82586636089944;0.0;-98.82586636089944
0.07200000000000004;-9979208990.0;-9979200545.0;-1884.0;-1.6403407246051673;-0.12484628099892334;-0.48446346544359775;-286.01774454066157;0.0;-286.01774454066157
0.07600000000000004;-9979279276.0;-9979202982.0;-6008.0;-17.571451589509955;-0.6093097464425211;-1.3915109781626462;-3982.777716226197;0.0;-3982.777716226197
0.08000000000000004;-9979351680.0;-9979210985.0;-68291.0;-18.101022527605835;-2.0008207246051675;-19.668090864904787;-132.39273452396992;0.0;-132.39273452396992
0.08400000000000005;-9979460328.0;-9979297660.0;-54020.0;-27.161839159087723;-21.668911589509953;0.32668906190411917;-2265.204157870472;0.0;-2265.204157870472
0.08800000000000005;-9979614329.0;-9979383028.0;-77300.0;-38.500241328289164;-21.342222527605834;-10.45761663148189;-2834.6005423003603;-83.33333333333333;-2751.267208967027
0.09200000000000005;-9979823545.0;-9979510227.0;-104102.0;-52.30407976281669;-31.799839159087725;-12.946522169201437;-3450.959608631882;-166.66666666666666;-3284.292941965215
0.09600000000000006;-9980096352.0;-9979689212.0;-134333.0;-68.20186244460251;-44.74636132828916;-15.617698434527533;-3974.445670446455;-250.0;-3724.445670446455
0.10000000000000006;-9980438715.0;-9979930668.0;-165684.0;-85.5905905400436;-60.364059762816694;-17.778842681785818;-4347.182023860274;-333.3333333333333;-4013.8486905269406
0.10400000000000006;-9980855980.0;-9980243239.0;-195476.0;-104.31638123946445;-78.14290244460251;-19.176248095441096;-4681.447674855211;-500.0;-4181.447674855211
0.10800000000000007;-9981354072.0;-9980632515.0;-223465.0;-124.52285191633212;-97.31915054004361;-20.405130699420837;-5051.6176692169165;-666.6666666666666;-4384.95100255025
0.11200000000000007;-9981938703.0;-9981103412.0;-250660.0;-146.15777327766432;-117.72428123946445;-21.838170676867676;-5408.730340333051;-750.0;-4658.730340333051
0.11600000000000008;-9982615309.0;-9981661661.0;-277042.0;-169.15162760997418;-139.56245191633212;-23.217841361332205;-5748.463583077466;-916.6666666666666;-4831.7969164108
0.12000000000000008;-9983388971.0;-9982312782.0;-302527.0;-193.41535420720842;-162.78029327766433;-24.522954332309865;-6065.93164930856;-1083.3333333333333;-4982.598315975227
0.12400000000000008;-9984263645.0;-9983061994.0;-326977.0;-218.6684316081907;-187.3032476099742;-25.730726597234224;-6313.2693502455695;-1333.3333333333333;-4979.9360169122365
0.12800000000000009;-9985241808.0;-9983914129.0;-349516.0;-244.54086428197786;-213.03397420720842;-26.605417400982276;-6468.10816844679;-1416.6666666666667;-5051.441501780123
0.1320000000000001;-9986324668.0;-9984872686.0;-369122.0;-270.7149492307661;-239.6393916081907;-27.048792673787148;-6543.521237197055;-1666.6666666666667;-4876.854570530389
0.1360000000000001;-9987512622.0;-9985939438.0;-385230.0;-296.98840711519847;-266.68818428197784;-27.140564948788267;-6568.364471108097;-1833.3333333333333;-4735.031137774764
0.1400000000000001;-9988805688.0;-9987114752.0;-397870.0;-323.2666349497828;-293.8287492307661;-27.031857884432384;-6569.556958646089;-2083.3333333333335;-4486.223625312756
0.1440000000000001;-9990203786.0;-9988398194.0;-407494.0;-349.5245136545815;-320.8606071151985;-26.855667834584324;-6564.469676199664;-2250.0;-4314.469676199664
0.1480000000000001;-9991706860.0;-9989789059.0;-414727.0;-375.76836921342885;-347.7162749497828;-26.691858704798676;-6560.963889711843;-2500.0;-4060.963889711843
0.1520000000000001;-9993314904.0;-9991286691.0;-420169.0;-402.011126255261;-374.4081336545815;-26.570375558847388;-6560.6892604580335;-2750.0;-3810.689260458034
0.1560000000000001;-9995027950.0;-9992890605.0;-424299.0;-428.26131283758076;-400.9785092134289;-26.49055704183212;-6562.546645579942;-2916.6666666666665;-3645.8799789132763
0.16000000000000011;-9996846035.0;-9994600481.0;-427469.0;-454.5212236374773;-427.469066255261;-26.440386582319775;-6564.977699974136;-3166.6666666666665;-3398.3110333074696
0.16400000000000012;-9998769191.0;-9996416118.0;-429917.0;-480.7890864370711;-453.9094528375808;-26.406790799896555;-6566.9656998984465;-3333.3333333333335;-3233.632366565113
0.16800000000000012;-10000797438.0;-9998337382.0;-431809.0;-507.0617808073994;-480.3162436374773;-26.38138279959378;-6568.17359258207;-3583.3333333333335;-2984.840259248737
0.17200000000000013;-10002930785.0;-10000364172.0;-433266.0;-533.3366071301393;-506.6976264370711;-26.360114370328233;-6568.706580684989;-3750.0;-2818.7065806849887
0.17600000000000013;-10005169233.0;-10002496402.0;-434383.0;-559.6119248014277;-533.0577408073993;-26.341846322740025;-6568.829417822088;-4000.0;-2568.829417822087
0.18000000000000013;-10007512781.0;-10004734000.0;-435233.0;-585.8870539724801;-559.3995871301394;-26.32631767128828;-6568.782292763103;-4166.666666666667;-2402.1156260964362
0.18400000000000014;-10009961429.0;-10007076903.0;-435878.0;-612.161899609793;-585.7259048014276;-26.313829171052475;-6568.711409328216;-4333.333333333333;-2235.378075994883
0.18800000000000014;-10012515175.0;-10009525061.0;-436368.0;-638.4365974739893;-612.0397339724801;-26.304245637312874;-6568.674466049089;-4500.0;-2068.6744660490886
0.19200000000000014;-10015174021.0;-10012078436.0;-436739.0;-664.7112980423817;-638.343979609793;-26.296957864196315;-6568.675142098101;-4750.0;-1818.675142098101
0.19600000000000015;-10017937965.0;-10014736999.0;-437022.0;-690.9860840780257;-664.6409374739893;-26.291680568392394;-6568.696508910989;-5000.0;-1568.696508910989
0.20000000000000015;-10020807009.0;-10017500729.0;-437236.0;-717.2609700295573;-690.9326180423817;-26.28762603564394;-6568.721487882896;-5250.0;-1318.7214878828968
0.20400000000000015;-10023781153.0;-10020369609.0;-437400.0;-743.5359320142397;-717.2202440780256;-26.28472595153164;-6568.74049617062;-5416.666666666667;-1152.0738295039523
0.20800000000000016;-10026860397.0;-10023343628.0;-437525.0;-769.8109369068261;-743.5049700295573;-26.282461984682413;-6568.751223146592;-5583.333333333333;-985.4178898132586
0.21200000000000016;-10030044741.0;-10026422777.0;-437620.0;-796.085958851544;-769.7874320142397;-26.280704892586414;-6568.75548617947;-5750.0;-818.7554861794695
0.21600000000000016;-10033334185.0;-10029607049.0;-437692.0;-822.3609837918833;-796.0681369068261;-26.279341944717885;-6568.756235084834;-5916.666666666667;-652.0895684181669
0.22000000000000017;-10036728729.0;-10032896438.0;-437747.0;-848.6360071498694;-822.347478851544;-26.278324940339303;-6568.755839496533;-6083.333333333333;-485.42250616319916
0.22400000000000017;-10040228373.0;-10036290941.0;-437788.0;-874.9110294971003;-848.6258037918833;-26.27748335798617;-6568.755586807725;-6166.666666666667;-402.08892014105845
0.22800000000000017;-10043833118.0;-10039790554.0;-437819.0;-901.1860529855069;-874.9032871498695;-26.276882347230867;-6568.755872101633;-6250.0;-318.75587210163303
0.23200000000000018;-10047542962.0;-10043395274.0;-437844.0;-927.4610794152891;-901.1801694971003;-26.276523488406497;-6568.75660744555;-6333.333333333333;-235.4232741122173
0.23600000000000018;-10051357907.0;-10047105100.0;-437862.0;-953.7361096656281;-927.4566929855068;-26.276106429782203;-6568.75756258475;-6416.666666666667;-152.0908959180831
0.24000000000000019;-10055277627.0;-10050920031.0;-437876.0;-979.9298584648081;-953.732799415289;-26.27587025033904;-6548.4371997950175;-6500.0;-48.437199795017705
0.2440000000000002;-10059301143.0;-10054840065.0;-437562.0;-1005.8791516294855;-980.0086696656281;-26.174908799180116;-6487.323291169332;-6500.0;12.676708830667849
0.2480000000000002;-10063427178.0;-10058864799.0;-436344.0;-1031.5086891638562;-1006.1835784648082;-25.876213164677324;-6407.384383592671;-6583.333333333333;175.9489497406621
0.25200000000000017;-10067653352.0;-10062993038.0;-434140.0;-1056.5433232911607;-1032.0597916294855;-25.497297534370546;-6258.658531826142;-6583.333333333333;324.6748015071903
0.25600000000000017;-10071974890.0;-10067223266.0;-430086.0;-1080.3845546235168;-1057.557089163856;-24.791394127304557;-5960.3078330890185;-6583.333333333333;623.0255002443146
0.2600000000000002;-10076385640.0;-10071552659.0;-422231.0;-1102.6874113570013;-1082.3484832911606;-23.369931332356146;-5575.714183371133;-6583.333333333333;1007.6191499622
0.2640000000000002;-10080878998.0;-10075975532.0;-410108.0;-1123.3393174389917;-1105.7184146235168;-21.575476733484493;-5162.976520497579;-6583.333333333333;1420.3568128357533
0.2680000000000002;-10085447307.0;-10080484707.0;-394291.0;-1142.0772154437257;-1127.2938913570013;-19.7028860819903;-4684.474501183502;-6583.333333333333;1898.8588321498314
0.2720000000000002;-10090081487.0;-10085072694.0;-374613.0;-1158.544924292222;-1146.9967774389916;-17.557218004734068;-4116.9272121240965;-6500.0;2383.0727878759035
0.2760000000000002;-10094771513.0;-10089730909.0;-350578.0;-1172.5066470118948;-1164.5539954437256;-15.025608848496404;-3490.430679918177;-6416.666666666667;2926.23598674849
0.2800000000000002;-10099507115.0;-10094449227.0;-322286.0;-1183.9003996411263;-1179.579604292222;-12.264202719672767;-2848.4381573078963;-6333.333333333333;3484.8951760254367
0.2840000000000002;-10104277833.0;-10099216602.0;-290513.0;-1192.6792837058626;-1191.8438070118948;-9.487372629231459;-2194.721016184076;-6250.0;4055.278983815924
0.2880000000000002;-10109074142.0;-10104021926.0;-255907.0;-1199.077199194422;-1201.3311796411263;-6.702524064736281;-1599.478872139855;-6166.666666666667;4567.187794526812
0.2920000000000002;-10113888932.0;-10108854060.0;-220082.0;-1203.6975440669855;-1208.0337037058625;-4.248415488559431;-1155.086218140866;-6083.333333333333;4928.247115192467
0.2960000000000002;-10118716557.0;-10113703188.0;-185744.0;-1206.9061471974308;-1212.282119194422;-2.5600648725635438;-802.1507826113066;-5916.666666666667;5114.51588405536
0.3000000000000002;-10123551896.0;-10118562556.0;-154001.0;-1208.83478314373;-1214.8421840669855;-1.30402313044533;-482.1589865748024;-5750.0;5267.841013425197
0.3040000000000002;-10128390928.0;-10123427140.0;-124756.0;-1209.7579441949933;-1216.1462071974308;-0.1739359462990251;-230.79026281584447;-5500.0;5269.2097371841555
0.3080000000000002;-10133231072.0;-10128292420.0;-98508.0;-1210.0359729740517;-1216.3201431437299;0.6517189487365158;-69.50719476458289;-5333.333333333333;5263.82613856875
0.3120000000000002;-10138071016.0;-10133155093.0;-75979.0;-1209.9858036439284;-1215.6684241949933;1.0737112209417319;12.542332530813383;-5083.333333333333;5095.875665864147
0.3160000000000002;-10142910340.0;-10138013471.0;-57545.0;-1209.8309259526934;-1214.5947129740516;1.156209330123147;38.719422808753734;-4916.666666666667;4955.386089475421
0.32000000000000023;-10147749108.0;-10142867225.0;-43115.0;-1209.6919184915844;-1213.4385036439285;1.0206776912350506;34.75186527725782;-4666.666666666667;4701.418531943925
0.32400000000000023;-10152587545.0;-10147716896.0;-32212.0;-1209.6091751890542;-1212.4178259526934;0.7931874611090279;20.6858256325404;-4500.0;4520.68582563254
0.32800000000000024;-10157425856.0;-10152563394.0;-24151.0;-1209.577697501229;-1211.6246384915844;0.5664033025302615;7.86942195628626;-4333.333333333333;4341.20275528962
0.33200000000000024;-10162264162.0;-10157407626.0;-18230.0;-1209.5766697725746;-1211.0582351890541;0.38673768782496154;0.2569321636087807;-4083.3333333333335;4083.5902654969423
0.33600000000000024;-10167102510.0;-10162250311.0;-13851.0;-1209.5868412766363;-1210.6714975012292;0.2637677286545568;-2.542876015411366;-3916.6666666666665;3914.123790651255
0.34000000000000025;-10171940897.0;-10167091941.0;-10569.0;-1209.5967741267439;-1210.4077297725746;0.18674849593844556;-2.483212526897205;-3583.3333333333335;3580.8501208064363
0.34400000000000025;-10176779307.0;-10171932824.0;-8073.0;-1209.6023583018887;-1210.2209812766362;0.13982714989219858;-1.3960437862010622;-3416.6666666666665;3415.2706228804655
0.34800000000000025;-10181617723.0;-10176773148.0;-6159.0;-1209.603846663441;-1210.081154126744;0.10925582485538143;-0.3720903880548576;-3250.0;3249.627909611945
0.35200000000000026;-10186456135.0;-10181613035.0;-4688.0;-1209.6030375984074;-1209.9718983018886;0.08677163844777169;0.20226625838404289;-3083.3333333333335;3083.5355995917175
0.35600000000000026;-10191294542.0;-10186452575.0;-3560.0;-1209.6015921485098;-1209.8851266634408;0.06848906503341823;0.36136247439344515;-2833.3333333333335;2833.694695807727
0.36000000000000026;-10196132944.0;-10191291841.0;-2701.0;-1209.6004421476075;-1209.8166375984074;0.05298544989750553;0.28750022556778276;-2583.3333333333335;2583.6208335589013
0.36400000000000027;-10200971343.0;-10196130895.0;-2049.0;-1209.5998526135456;-1209.76365214851;0.040270000902410175;0.14738351546839112;-2416.6666666666665;2416.814050182135
0.36800000000000027;-10205809742.0;-10200969788.0;-1555.0;-1209.599713815463;-1209.7233821476075;0.030229534061845698;0.03469952065415782;-2250.0;2250.034699520654
0.3720000000000003;-10210648142.0;-10205808560.0;-1182.0;-1209.5998072267953;-1209.6931526135456;0.02251879808272861;-0.023352833068202017;-2000.0;1999.9766471669318
0.3760000000000003;-10215486542.0;-10210647242.0;-900.0;-1209.5999553995396;-1209.670633815463;0.016826588667527176;-0.03704318606878587;-1750.0;1749.9629568139312
0.3800000000000003;-10220324942.0;-10215485857.0;-685.0;-1209.600066254552;-1209.6538072267954;0.012751827255897297;-0.027713753127045493;-1583.3333333333333;1583.3056195802062
0.3840000000000003;-10225163343.0;-10220324421.0;-521.0;-1209.600117603114;-1209.6410553995395;0.009729144987431937;-0.012837140502597322;-1416.6666666666667;1416.6538295261641
0.3880000000000003;-10230001744.0;-10225162946.0;-397.0;-1209.600123770366;-1209.631326254552;0.0073886514380774315;-0.001541812991945335;-1250.0;1249.998458187008
0.3920000000000003;-10234840144.0;-10230001441.0;-303.0;-1209.6001080463839;-1209.623937603114;0.005633832747889755;0.0039309955468525;-1000.0;1000.0039309955469
0.3960000000000003;-10239678545.0;-10234839914.0;-230.0;-1209.6000882210953;-1209.618303770366;0.004395723982270283;0.004956322129601176;-750.0;750.0049563221296
0.4000000000000003;-10244516946.0;-10239678369.0;-176.0;-1209.600072953583;-1209.6139080463838;0.0032598252885236434;0.003816878063389595;-583.3333333333334;583.3371502113968
0.4040000000000003;-10249355346.0;-10244516811.0;-135.0;-1209.6000638994892;-1209.6106482210953;0.0024752675121817447;0.0022635234699919238;-500.0;500.00226352347
0.4080000000000003;-10254193747.0;-10249355243.0;-103.0;-1209.6000592767916;-1209.608172953583;0.0019290540938072809;0.0011556743970686512;-416.6666666666667;416.66782234106375
0.4120000000000003;-10259032147.0;-10254193667.0;-80.0;-1209.6000566357857;-1209.6062438994893;0.0013846226977420883;0.0006602514872611209;-250.0;250.00066025148726
0.4160000000000003;-10263870547.0;-10259032086.0;-61.0;-1209.6000542163788;-1209.6048592767916;0.0011426410057993053;0.0006048517207091209;-166.66666666666666;166.66727151838737
0.4200000000000003;-10268708948.0;-10263870500.0;-47.0;-1209.6000512282594;-1209.6037166357858;0.0008424194070357771;0.0007470298442058265;-83.33333333333333;83.33408036317753
0.4240000000000003;-10273547348.0;-10268708911.0;-37.0;-1209.600047566111;-1209.6028742163787;0.000602988119226211;0.0009155371003544133;0.0;0.0009155371003544133
0.4280000000000003;-10278385749.0;-10273547320.0;-28.0;-1209.600043449512;-1209.6022712282595;0.0005436621484022908;0.001029149757414416;83.33333333333333;-83.33230418357591
0.43200000000000033;-10283224149.0;-10278385726.0;-23.0;-1209.600039132955;-1209.601727566111;0.0003041165991817252;0.0010791392242026632;83.33333333333333;-83.33225419410913
0.43600000000000033;-10288062549.0;-10283224131.0;-18.0;-1209.6000347872555;-1209.601423449512;0.0003043165568215045;0.0010864249020414718;0.0;0.0010864249020414718
0.44000000000000034;-10292900950.0;-10288062535.0;-14.0;-1209.6000304911847;-1209.601119132955;0.00024434569968434516;0.0010740176890067232;0.0;0.0010740176890067232
0.44400000000000034;-10297739350.0;-10292900938.0;-12.0;-1209.600026244743;-1209.6008747872554;0.0001242960706804297;0.0010616104191285558;0.0;0.0010616104191285558
0.44800000000000034;-10302577750.0;-10297739341.0;-9.0;-1209.6000220239812;-1209.6007504911847;0.00018424644167680526;0.0010551904665589973;83.33333333333333;-83.33227814286677
0.45200000000000035;-10307416151.0;-10302577743.0;-7.0;-1209.6000178017769;-1209.600566244743;0.0001242207617906388;0.0010555510812082503;83.33333333333333;-83.33227778225212
0.45600000000000035;-10312254551.0;-10307416144.0;-7.0;-1209.6000135599518;-1209.6004420239813;4.222204324833001e-06;0.001060456270352006;83.33333333333333;-83.33227287706298
0.46000000000000035;-10317092951.0;-10312254545.0;-6.0;-1209.6000092970628;-1209.600437801777;6.424182515729626e-05;0.0010657222446752712;0.0;0.0010657222446752712
0.46400000000000036;-10321931352.0;-10317092946.0;-5.0;-1209.600005006763;-1209.6003735599518;6.426288905458932e-05;0.001072574946192617;0.0;0.001072574946192617
0.46800000000000036;-10326769752.0;-10321931347.0;-5.0;-1209.600000698574;-1209.6003092970627;4.290299784770468e-06;0.0010770472727017477;0.0;0.0010770472727017477
0.47200000000000036;-10331608152.0;-10326769748.0;-4.0;-1209.5999963710524;-1209.600305006763;6.430818893932155e-05;0.001081880384390388;0.0;0.001081880384390388
0.47600000000000037;-10336446552.0;-10331608148.0;-4.0;-1209.5999920279496;-1209.600240698574;4.327521537561552e-06;0.0010857756933546625;0.0;0.0010857756933546625
0.48000000000000037;-10341284952.0;-10336446548.0;-4.0;-1209.5999876684;-1209.6002363710525;4.34310277341865e-06;0.0010898874052145402;0.0;0.0010898874052145402
0.4840000000000004;-10346123353.0;-10341284948.0;-4.0;-1209.5999832938467;-1209.6002320279497;4.359549620858161e-06;0.0010936383318949083;0.0;0.0010936383318949083
0.4880000000000004;-10350961753.0;-10346123348.0;-5.0;-1209.5999789034233;-1209.6002276684;-5.562544652093493e-05;0.0010976058320011362;0.0;0.0010976058320011362
0.4920000000000004;-10355800153.0;-10350961749.0;-4.0;-1209.5999744977075;-1209.6002832938466;6.439042317651911e-05;0.0011014289498234575;0.0;0.0011014289498234575
