Zeit[sec];Sollposition[°];Istposition[°];Positionsschleppfehler[°];Sollgeschwindigkeit[°/s];Istgeschwindigkeit[°/s];Geschwindigkeitsdifferenz[°/s];Sollbeschleunigung[°/s*s];Istbeschleunigung[°/s*s];Beschleunigungsdifferenz[°/s*s]
0.0;-9979199999.0;-9979199995.0;-4.0;0.0;-0.00023999999999999998;0.0;0.0;0.0;0.0
0.004;-9979199999.0;-9979199995.0;-4.0;0.0;-0.00023999999999999998;0.0;0.0;0.0;0.0
0.008;-9979199999.0;-9979199995.0;-4.0;0.0;-0.00023999999999999998;0.0;0.0;0.0;0.0
0.012;-9979199999.0;-9979199995.0;-4.0;0.0;-0.00023999999999999998;0.0;0.0;0.0;0.0
0.016;-9979199999.0;-9979199995.0;-4.0;0.0;-0.00023999999999999998;0.0;0.0;0.0;0.0
0.02;-9979199999.0;-9979199995.0;-4.0;0.0;-0.00023999999999999998;0.0;0.0;0.0;0.0
0.024;-9979199999.0;-9979199995.0;-4.0;0.0;-0.00023999999999999998;0.0;0.0;0.0;0.0
0.028;-9979199999.0;-9979199995.0;-4.0;0.0;-0.00023999999999999998;0.0;0.0;0.0;0.0
0.032;-9979199999.0;-9979199995.0;-4.0;0.0;-0.00023999999999999998;0.0;0.0;0.0;0.0
0.036000000000000004;-9979199999.0;-9979199995.0;-4.0;0.0;-0.00023999999999999998;0.0;0.0;0.0;0.0
0.04000000000000001;-9979199999.0;-9979199995.0;-4.0;0.0;-0.00023999999999999998;0.0;0.0;0.0;0.0
0.04400000000000001;-9979199999.0;-9979199995.0;-4.0;0.0;-0.00023999999999999998;0.0;0.0;0.0;0.0
0.048000000000000015;-9979199999.0;-9979199995.0;-4.0;0.0;-0.00023999999999999998;0.0;0.0;0.0;0.0
0.05200000000000002;-9979199999.0;-9979199995.0;-4.0;0.0;-0.00023999999999999998;0.0;0.0;0.0;0.0
0.05600000000000002;-9979199999.0;-9979199995.0;-4.0;0.0;-0.00023999999999999998;0.0;0.0;0.0;0.0
0.060000000000000026;-9979199999.0;-9979199995.0;-4.0;8.656197209923802e-10;-0.00023999999999999998;0.0;2.1640493024809505e-07;0.0;2.1640493024809505e-07
0.06400000000000003;-9979199999.0;-9979199995.0;-4.0;5.770798139949201e-10;-0.00023999999999999998;8.656197210030973e-10;-7.213497674936503e-08;0.0;-7.213497674936503e-08
0.06800000000000003;-9979292756.0;-9979199995.0;-4.0;-23.189235558786255;-0.00023999913438027898;-2.885399070010324e-10;-5797.308889840833;0.0;-5797.308889840833
0.07200000000000004;-9979377647.0;-9979199995.0;-92761.0;-21.22261503438524;-0.00023999942292018598;-28.754655559363332;491.6551311002539;0.0;491.6551311002539
0.07600000000000004;-9979483790.0;-9979315014.0;-62633.0;-26.53570571338221;-28.754895558786252;3.7743005244010135;-1328.2726697492428;0.0;-1328.2726697492428
0.08000000000000004;-9979598121.0;-9979414936.0;-68854.0;-28.58273186327609;-24.98059503438524;-5.686350678996973;-511.7565374734703;-83.33333333333333;-428.42320414013693
0.08400000000000005;-9979715311.0;-9979537603.0;-60518.0;-29.29761583492346;-30.666945713382212;-1.54686614989388;-178.72099291184185;-166.66666666666666;-12.05432624517519
0.08800000000000005;-9979836049.0;-9979666458.0;-48853.0;-30.18435321434064;-32.21381186327609;-0.014983971647367866;-221.68434485429512;-250.0;28.315655145704888
0.09200000000000005;-9979957817.0;-9979795373.0;-40676.0;-30.442034603508848;-32.22879583492346;-0.39611737941717706;-64.42034729205216;-250.0;185.57965270794784
0.09600000000000006;-9980071918.0;-9979925872.0;-31945.0;-28.52525967005218;-32.62491321434064;0.26617861083178695;479.19373336416714;-250.0;729.1937333641672
0.10000000000000006;-9980170813.0;-9980055306.0;-16612.0;-24.723747557022307;-32.35873460350885;2.836754933456671;950.378028257468;-250.0;1200.378028257468
0.10400000000000006;-9980248259.0;-9980173393.0;2580.0;-19.361477127252627;-29.52197967005218;4.953032113029874;1340.56760744242;-250.0;1590.56760744242
0.10800000000000007;-9980293814.0;-9980271668.0;23409.0;-11.38893235050621;-24.568947557022305;6.612010429769679;1993.1361941866044;-250.0;2243.1361941866044
0.11200000000000007;-9980301226.0;-9980343495.0;49681.0;-1.8527993196482302;-17.956937127252626;9.548864776746417;2384.033257714495;-166.66666666666666;2550.6999243811615
0.11600000000000008;-9980272456.0;-9980377127.0;75901.0;7.192393132958804;-8.40807235050621;11.109333030857979;2261.2981131517586;-166.66666666666666;2427.964779818425
0.12000000000000008;-9980210759.0;-9980366322.0;93866.0;15.42423364733662;2.7012606803517696;10.123092452607034;2057.960128594454;-83.33333333333333;2141.2934619277876
0.12400000000000008;-9980120819.0;-9980315025.0;104266.0;22.485028500298327;12.824353132958803;8.855840514377816;1765.1987132404265;0.0;1765.1987132404265
0.12800000000000009;-9980010743.0;-9980228305.0;107486.0;27.51907746242701;21.68019364733662;7.253994852961707;1258.5122405321706;83.33333333333333;1175.1789071988374
0.1320000000000001;-9979889332.0;-9980112569.0;101826.0;30.352659306434465;28.934188500298326;4.694448962128682;708.3954610018636;166.66666666666666;541.728794335197
0.1360000000000001;-9979763269.0;-9979978055.0;88723.0;31.515630449492225;33.62863746242701;2.047401844007453;290.74278576444;166.66666666666666;124.07611909777336
0.1400000000000001;-9979639052.0;-9979835351.0;72082.0;31.054322705304774;35.67603930643446;0.1645111430577657;-115.32693604686273;333.3333333333333;-448.66026938019604
0.1440000000000001;-9979525334.0;-9979691989.0;52937.0;28.42964763049713;35.84055044949223;-1.610007744187456;-656.1687687019111;333.3333333333333;-989.5021020352444
0.1480000000000001;-9979427956.0;-9979555067.0;29733.0;24.34437429299353;34.23054270530477;-4.016915074807642;-1021.3183343759002;333.3333333333333;-1354.6516677092336
0.1520000000000001;-9979349379.0;-9979434213.0;6257.0;19.644242120376905;30.21362763049713;-5.493833337503602;-1175.0330431541558;250.0;-1425.0330431541558
0.1560000000000001;-9979293353.0;-9979335334.0;-14045.0;14.006492017645918;24.719794292993527;-5.918252172616622;-1409.4375256827468;166.66666666666666;-1576.1041923494133
0.16000000000000011;-9979261408.0;-9979260128.0;-33225.0;7.986294057930394;18.801542120376904;-6.788550102730985;-1505.049489928881;166.66666666666666;-1671.7161565955478
0.16400000000000012;-9979199999.0;-9979212077.0;-49331.0;15.35211252194549;12.012992017645919;-6.986557959715525;1841.454616003774;83.33333333333333;1758.1212826704407
0.16800000000000012;-9979199999.0;-9979191972.0;-8027.0;0.0;5.026434057930394;9.844058464015095;-3838.0281304863724;83.33333333333333;-3921.3614638197055
0.17200000000000013;-9979253108.0;-9979132491.0;-67508.0;-13.277110589780461;14.87049252194549;-18.92097252194549;-3319.2776474451152;0.0;-3319.2776474451152
0.17600000000000013;-9979257862.0;-9979148692.0;-104416.0;-1.1885213399922507;-4.050479999999999;-15.491590589780461;3022.1473124470526;0.0;3022.1473124470526
0.18000000000000013;-9979261002.0;-9979226860.0;-31002.0;-0.7850395657888956;-19.54207058978046;16.49342924978821;100.8704435508388;0.0;100.8704435508388
0.18400000000000014;-9979262362.0;-9979239054.0;-21948.0;-0.3400161777637247;-3.0486413399922503;0.9467217742033549;111.25584700629271;0.0;111.25584700629271
0.18800000000000014;-9979262541.0;-9979247461.0;-14901.0;-0.04461886711551153;-2.1019195657888954;0.8678433880251708;73.8493276620533;0.0;73.8493276620533
0.19200000000000014;-9979262217.0;-9979252397.0;-10144.0;0.0810126664251771;-1.2340761777637246;0.5808173106482131;31.40788338517216;0.0;31.40788338517216
0.19600000000000015;-9979261845.0;-9979255010.0;-7207.0;0.09303385180945375;-0.6532588671155115;0.3018515335406886;3.005296346069164;0.0;3.005296346069164
0.20000000000000015;-9979261617.0;-9979256415.0;-5430.0;0.05683700089556752;-0.3514073335748229;0.11864118538427668;-9.049212728471558;0.0;-9.049212728471558
0.20400000000000015;-9979261551.0;-9979257346.0;-4271.0;0.016559666514547794;-0.23276614819054622;0.03334314908611377;-10.069333595254932;0.0;-10.069333595254932
0.20800000000000016;-9979261587.0;-9979258143.0;-3408.0;-0.009014295143761232;-0.19942299910443245;0.011502665618980251;-6.393490414577257;83.33333333333333;-89.72682374791059
0.21200000000000016;-9979261660.0;-9979258894.0;-2693.0;-0.018360541312067602;-0.1879203334854522;0.017326038341690997;-2.3365615420765926;166.66666666666666;-169.00322820874325
0.21600000000000016;-9979261730.0;-9979259576.0;-2084.0;-0.017339250848771207;-0.1705942951437612;0.027193753831693618;0.2553226158240989;250.0;-249.7446773841759
0.22000000000000017;-9979261779.0;-9979260149.0;-1581.0;-0.012415756205058094;-0.1434005413120676;0.031201290463296394;1.2308736609282782;250.0;-248.76912633907173
0.22400000000000017;-9979261810.0;-9979260597.0;-1182.0;-0.007739473897463194;-0.11219925084877119;0.0288634946437131;1.1690705768987248;250.0;-248.83092942310128
0.22800000000000017;-9979261830.0;-9979260930.0;-880.0;-0.004893748199081024;-0.08333575620505809;0.02279628230759491;0.7114314245955425;250.0;-249.28856857540447
0.23200000000000018;-9979261845.0;-9979261172.0;-658.0;-0.003805908314554922;-0.060539473897463184;0.016165725698382163;0.2719599711315256;250.0;-249.72804002886846
0.23600000000000018;-9979261860.0;-9979261349.0;-496.0;-0.0037631530482158523;-0.04437374819908102;0.010807839884526098;0.010688816584767377;166.66666666666666;-166.65597785008188
0.24000000000000019;-9979261877.0;-9979261483.0;-377.0;-0.0040722052572017605;-0.03356590831455492;0.007182755266339071;-0.07726305224647705;166.66666666666666;-166.74392971891314
0.2440000000000002;-9979261894.0;-9979261588.0;-289.0;-0.004317476873905511;-0.02638315304821585;0.004970947791014094;-0.061317904175937646;83.33333333333333;-83.39465123750927
0.2480000000000002;-9979261911.0;-9979261673.0;-221.0;-0.004356807460088427;-0.021412205257201757;0.0038347283832962445;-0.009832646545729047;83.33333333333333;-83.34316597987906
0.25200000000000017;-9979261928.0;-9979261743.0;-168.0;-0.004213255970958121;-0.017577476873905512;0.003140669413817087;0.03588787228257653;0.0;0.03588787228257653
0.25600000000000017;-9979261944.0;-9979261800.0;-128.0;-0.0039672673325854835;-0.014436807460088425;0.0025435514891303038;0.06149715959315942;-83.33333333333333;83.39483049292649
0.2600000000000002;-9979261959.0;-9979261847.0;-97.0;-0.003690990660175322;-0.011893255970958121;0.002105988638372639;0.06906916810254041;-166.66666666666666;166.7357358347692
0.2640000000000002;-9979261972.0;-9979261886.0;-73.0;-0.0034251444168632125;-0.009787267332585482;0.0017162766724101615;0.06646156082802733;-250.0;250.06646156082803
0.2680000000000002;-9979261985.0;-9979261918.0;-54.0;-0.0031819655801049156;-0.00807099066017532;0.0014058462433121088;0.06079470918957423;-250.0;250.06079470918957
0.2720000000000002;-9979261997.0;-9979261944.0;-41.0;-0.0029574979792355905;-0.006665144416863212;0.001023178836758296;0.056116900217331275;-250.0;250.05611690021732
0.2760000000000002;-9979262008.0;-9979261966.0;-31.0;-0.002742831213387249;-0.005641965580104916;0.0008244676008693254;0.05366669146208535;-250.0;250.0536666914621
0.2800000000000002;-9979262018.0;-9979261985.0;-23.0;-0.002530545767391356;-0.004817497979235591;0.0006946667658483414;0.05307136149897325;-250.0;250.05307136149898
0.2840000000000002;-9979262027.0;-9979262001.0;-17.0;-0.0023167128818742367;-0.004122831213387249;0.0005722854459958935;0.05345822137927986;-250.0;250.0534582213793
0.2880000000000002;-9979262036.0;-9979262015.0;-12.0;-0.002100341999335167;-0.0035505457673913558;0.0005138328855171194;0.0540927206347674;-166.66666666666666;166.72075938730143
0.2920000000000002;-9979262043.0;-9979262027.0;-9.0;-0.0018820044287900031;-0.0030367128818742364;0.00039637088253906966;0.05458439263629099;-83.33333333333333;83.38791772596961
0.2960000000000002;-9979262050.0;-9979262037.0;-6.0;-0.001662681205922536;-0.0026403419993351667;0.00039833757054516354;0.05483080571686678;0.0;0.05483080571686678
0.3000000000000002;-9979262056.0;-9979262045.0;-5.0;-0.0014431360958665875;-0.002242004428790003;0.00027932322286746726;0.054886277513987135;-83.33333333333333;83.38821961084732
0.3040000000000002;-9979262061.0;-9979262052.0;-4.0;-0.0012237453546608825;-0.001962681205922536;0.0002795451100559485;0.05484768530142624;0.0;0.05484768530142624
0.3080000000000002;-9979262065.0;-9979262058.0;-3.0;-0.0010045886193197529;-0.0016831360958665875;0.0002793907412057049;0.05478918383528241;0.0;0.05478918383528241
0.3120000000000002;-9979262068.0;-9979262063.0;-2.0;-0.0007855940434063556;-0.0014037453546608826;0.0002791567353411298;0.054748643978349325;83.33333333333333;-83.27858468935499
0.3160000000000002;-9979262070.0;-9979262067.0;-1.0;-0.0005666597723335208;-0.0011245886193197527;0.0002789945759133971;0.0547335677682087;0.0;0.0547335677682087
0.32000000000000023;-9979262071.0;-9979262070.0;0.0;-0.0003477110742653362;-0.0008455940434063556;0.00027893427107283486;0.05473717451704615;0.0;0.05473717451704615
0.32400000000000023;-9979262072.0;-9979262072.0;1.0;-0.00012871563273221797;-0.0005666597723335208;0.0002789486980681846;0.05474886038327955;0.0;0.05474886038327955
0.32800000000000024;-9979262072.0;-9979262073.0;1.0;9.032741788555487e-05;-0.0002877110742653362;0.0002189954415331182;0.05476076265444321;0.0;0.05476076265444321
0.33200000000000024;-9979262070.0;-9979262073.0;1.0;0.0003094068245316094;-6.871563273221797e-05;0.00021904305061777284;0.05476985166151364;0.0;0.05476985166151364
0.33600000000000024;-9979262068.0;-9979262073.0;3.0;0.0005285070060509678;0.00015032741788555487;0.00033907940664605455;0.05477504537983959;0.0;0.05477504537983959
0.34000000000000025;-9979262065.0;-9979262072.0;4.0;0.0007476190177065128;0.0004894068245316094;0.00027910018151935836;0.054778002913886265;0.0;0.054778002913886265
0.34400000000000025;-9979262061.0;-9979262069.0;4.0;0.0009667347803808489;0.0007685070060509678;0.00021911201165554506;0.05477894066858403;0.0;0.05477894066858403
0.34800000000000025;-9979262057.0;-9979262066.0;5.0;0.0011858516972148134;0.0009876190177065128;0.00027911576267433615;0.054779229208491105;0.0;0.054779229208491105
0.35200000000000026;-9979262051.0;-9979262061.0;4.0;0.0014049677484290564;0.001266734780380849;0.00015911691683396438;0.054779012803560755;0.0;0.054779012803560755
0.35600000000000026;-9979262045.0;-9979262056.0;5.0;0.0016240803371644155;0.0014258516972148133;0.00027911605121424296;0.054778147183839776;0.0;0.054778147183839776
0.36000000000000026;-9979262037.0;-9979262050.0;5.0;0.001843188309261263;0.0017049677484290563;0.00021911258873535911;0.054776993024211885;0.0;0.054776993024211885
0.36400000000000027;-9979262029.0;-9979262043.0;6.0;0.0020622876251609;0.0019240803371644154;0.00027910797209684747;0.05477482897490923;0.0;0.05477482897490923
0.36800000000000027;-9979262020.0;-9979262035.0;6.0;0.0022813765536238853;0.002203188309261263;0.00021909931589963712;0.054772232115746354;0.0;0.054772232115746354
0.3720000000000003;-9979262010.0;-9979262026.0;6.0;0.002500450478011707;0.0024222876251609;0.0002190889284629854;0.054768481096955424;0.0;0.054768481096955424
0.3760000000000003;-9979261999.0;-9979262016.0;6.0;0.00271950795562483;0.0026413765536238854;0.00021907392438782168;0.054764369403280756;0.0;0.054764369403280756
0.3800000000000003;-9979261987.0;-9979262005.0;6.0;0.0029385437927449275;0.002860450478011707;0.00021905747761312303;0.05475895928002436;0.0;0.05475895928002436
0.3840000000000003;-9979261975.0;-9979261993.0;6.0;0.003157555969592652;0.00307950795562483;0.00021903583712009744;0.05475304421193115;0.0;0.05475304421193115
0.3880000000000003;-9979261961.0;-9979261980.0;5.0;0.003376541312229025;0.0032985437927449276;0.00015901217684772444;0.05474633565909323;0.0;0.05474633565909323
0.3920000000000003;-9979261947.0;-9979261967.0;6.0;0.003595496646715071;0.003457555969592652;0.0002789853426363731;0.054738833621511475;0.0;0.054738833621511475
0.3960000000000003;-9979261931.0;-9979261953.0;6.0;0.003814418510571905;0.003736541312229025;0.00021895533448604548;0.05473046596420853;0.0;0.05473046596420853
0.4000000000000003;-9979261915.0;-9979261938.0;7.0;0.0040333043069403635;0.003955496646715071;0.0002789218638568347;0.054721449092114606;0.0;0.054721449092114606
0.4040000000000003;-9979261898.0;-9979261922.0;7.0;0.0042521511504213785;0.004234418510571905;0.00021888579636845842;0.05471171087025376;0.0;0.05471171087025376
0.4080000000000003;-9979261880.0;-9979261905.0;7.0;0.004470955867075971;0.004453304306940364;0.00021884684348101504;0.05470117916364821;0.0;0.05470117916364821
0.4120000000000003;-9979261862.0;-9979261887.0;7.0;0.004689714417345444;0.004672151150421379;0.00021880471665459283;0.054689637567368166;0.0;0.054689637567368166
0.4160000000000003;-9979261842.0;-9979261868.0;6.0;0.004908424492910543;0.004890955867075972;0.0001587585502694725;0.05467751889127472;0.0;0.05467751889127472
0.4200000000000003;-9979261821.0;-9979261848.0;6.0;0.005127083208372195;0.005049714417345444;0.00021871007556509888;0.054664678865412944;0.0;0.054664678865412944
0.4240000000000003;-9979261800.0;-9979261827.0;6.0;0.005345687389791425;0.005268424492910543;0.00021865871546165178;0.05465104535480755;0.0;0.05465104535480755
0.4280000000000003;-9979261778.0;-9979261806.0;6.0;0.00556423328614944;0.005487083208372195;0.00021860418141923018;0.05463647408950382;0.0;0.05463647408950382
0.43200000000000033;-9979261755.0;-9979261784.0;6.0;0.005782718877666895;0.005705687389791425;0.00021854589635801527;0.05462139787936371;0.0;0.05462139787936371
0.43600000000000033;-9979261731.0;-9979261761.0;6.0;0.0060011395477052734;0.00592423328614944;0.00021848559151745484;0.054605167509594627;0.0;0.054605167509594627
0.44000000000000034;-9979261706.0;-9979261737.0;6.0;0.006219493853565044;0.006142718877666895;0.0002184206700383785;0.05458857646494257;0.0;0.05458857646494257
0.44400000000000034;-9979261680.0;-9979261712.0;6.0;0.006437777178607692;0.0063611395477052735;0.00021835430585977027;0.054570831260661964;0.0;0.054570831260661964
0.44800000000000034;-9979261653.0;-9979261686.0;6.0;0.006655988080133684;0.006579493853565044;0.00021828332504264785;0.05455272538149817;0.0;0.05455272538149817
0.45200000000000035;-9979261626.0;-9979261659.0;6.0;0.006874123095664136;0.006797777178607692;0.00021821090152599268;0.05453375388261286;0.0;0.05453375388261286
0.45600000000000035;-9979261598.0;-9979261631.0;5.0;0.007092177608560535;0.007015988080133684;0.00015813501553045128;0.05451362822409987;0.0;0.05451362822409987
0.46000000000000035;-9979261568.0;-9979261603.0;5.0;0.0073101493105036264;0.007174123095664136;0.00021805451289639947;0.05449292548577282;0.0;0.05449292548577282
0.46400000000000036;-9979261538.0;-9979261574.0;6.0;0.007528036470253969;0.007392177608560535;0.00027797170194309145;0.05447178993758556;0.0;0.05447178993758556
0.46800000000000036;-9979261507.0;-9979261544.0;6.0;0.0077458341826331404;0.0076701493105036265;0.00021788715975034224;0.05444942809479294;0.0;0.05444942809479294
0.47200000000000036;-9979261475.0;-9979261513.0;6.0;0.0079635407164017;0.007888036470253969;0.00021779771237917175;0.05442663344213988;0.0;0.05442663344213988
0.47600000000000037;-9979261443.0;-9979261481.0;6.0;0.00818115232054086;0.00810583418263314;0.00021770653376855867;0.05440290103479002;0.0;0.05440290103479002
0.48000000000000037;-9979261409.0;-9979261448.0;5.0;0.008398665821111638;0.0083235407164017;0.00015761160413916078;0.05437837514269458;0.0;0.05437837514269458
0.4840000000000004;-9979261375.0;-9979261415.0;6.0;0.008616078332714968;0.00848115232054086;0.0002775135005707776;0.054353127900832326;0.0;0.054353127900832326
0.4880000000000004;-9979261339.0;-9979261380.0;5.0;0.008833386392871964;0.008758665821111638;0.00015741251160333002;0.05432701503924921;0.0;0.05432701503924921
0.4920000000000004;-9979261303.0;-9979261345.0;6.0;0.00905058798180328;0.008916078332714968;0.0002773080601569961;0.05430039723282884;0.0;0.05430039723282884
0.4960000000000004;-9979261266.0;-9979261309.0;6.0;0.009267678771410309;0.009193386392871964;0.00021720158893131537;0.05427269740175718;0.0;0.05427269740175718
0.5000000000000003;-9979261228.0;-9979261272.0;6.0;0.009484657318993513;0.009410587981803279;0.0002170907896070287;0.05424463689580102;0.0;0.05424463689580102
0.5040000000000003;-9979261189.0;-9979261234.0;6.0;0.009701518142294665;0.009627678771410308;0.0002169785475832041;0.054215205825288056;0.0;0.054215205825288056
