Zeit[sec];Sollposition[°];Istposition[°];Positionsschleppfehler[°];Sollgeschwindigkeit[°/s];Istgeschwindigkeit[°/s];Geschwindigkeitsdifferenz[°/s];Sollbeschleunigung[°/s*s];Istbeschleunigung[°/s*s];Beschleunigungsdifferenz[°/s*s]
0.0;-9979199999.0;-9979199995.0;-4.0;0.0;-0.00023999999999999998;0.0;0.0;0.0;0.0
0.004;-9979199999.0;-9979199995.0;-4.0;0.0;-0.00023999999999999998;0.0;0.0;0.0;0.0
0.008;-9979199999.0;-9979199995.0;-4.0;0.0;-0.00023999999999999998;0.0;0.0;0.0;0.0
0.012;-9979199999.0;-9979199995.0;-4.0;0.0;-0.00023999999999999998;0.0;0.0;0.0;0.0
0.016;-9979199999.0;-9979199995.0;-4.0;0.0;-0.00023999999999999998;0.0;0.0;0.0;0.0
0.02;-9979199999.0;-9979199995.0;-4.0;0.0;-0.00023999999999999998;0.0;0.0;0.0;0.0
0.024;-9979199999.0;-9979199995.0;-4.0;0.0;-0.00023999999999999998;0.0;0.0;0.0;0.0
0.028;-9979199999.0;-9979199995.0;-4.0;0.0;-0.00023999999999999998;0.0;0.0;0.0;0.0
0.032;-9979199999.0;-9979199995.0;-4.0;0.0;-0.00023999999999999998;0.0;0.0;0.0;0.0
0.036000000000000004;-9979199999.0;-9979199995.0;-4.0;0.0;-0.00023999999999999998;0.0;0.0;0.0;0.0
0.04000000000000001;-9979199999.0;-9979199995.0;-4.0;0.0;-0.00023999999999999998;0.0;0.0;0.0;0.0
0.04400000000000001;-9979199999.0;-9979199995.0;-4.0;0.0;-0.00023999999999999998;0.0;0.0;0.0;0.0
0.048000000000000015;-9979199999.0;-9979199995.0;-4.0;0.0;-0.00023999999999999998;0.0;0.0;0.0;0.0
0.05200000000000002;-9979199999.0;-9979199995.0;-4.0;0.0;-0.00023999999999999998;0.0;0.0;0.0;0.0
0.05600000000000002;-9979199999.0;-9979199995.0;-4.0;0.0;-0.00023999999999999998;0.0;0.0;0.0;0.0
0.060000000000000026;-9979199999.0;-9979199995.0;-4.0;0.0;-0.00023999999999999998;0.0;0.0;0.0;0.0
0.06400000000000003;-9979199999.0;-9979199995.0;-4.0;8.656197209923802e-10;-0.00023999999999999998;0.0;2.1640493024809505e-07;0.0;2.1640493024809505e-07
0.06800000000000003;-9979199999.0;-9979199995.0;-4.0;5.770798139949201e-10;-0.00023999999999999998;8.656197210030973e-10;-7.213497674936503e-08;0.0;-7.213497674936503e-08
0.07200000000000004;-9979304844.0;-9979199995.0;-4.0;-26.211119570416923;-0.00023999913438027898;-2.885399070010324e-10;-6552.779892748501;0.0;-6552.779892748501
0.07600000000000004;-9979400799.0;-9979199995.0;-104849.0;-23.98875931488247;-0.00023999942292018598;-32.501819570993995;555.5900638836135;0.0;555.5900638836135
0.08000000000000004;-9979520783.0;-9979330003.0;-70796.0;-29.99587554289607;-32.50205957041692;4.26554025553445;-1501.7790570034;-83.33333333333333;-1418.4457236700669
0.08400000000000005;-9979650036.0;-9979442949.0;-77834.0;-32.313482272061854;-28.236519314882468;-6.429396228013598;-579.4016822914463;-83.33333333333333;-496.06834895811295
0.08800000000000005;-9979782551.0;-9979581612.0;-68424.0;-33.128628146569454;-34.665915542896066;-1.75300672916579;-203.7864686269;-166.66666666666666;-37.11980196023332
0.09200000000000005;-9979919121.0;-9979727287.0;-55264.0;-34.142554507920835;-36.418922272061856;-0.02554587450759982;-253.48159033784512;-250.0;-3.4815903378451196
0.09600000000000006;-9980056779.0;-9979873064.0;-46057.0;-34.4145464922665;-36.444468146569456;-0.46150636135137546;-67.99799608641699;-333.3333333333333;265.3353372469163
0.10000000000000006;-9980185337.0;-9980020687.0;-36092.0;-32.13949414651383;-36.90597450792083;0.3259080156543277;568.7630864381674;-333.3333333333333;902.0964197715007
0.10400000000000006;-9980295989.0;-9980167007.0;-18330.0;-27.662816635513764;-36.5800664922665;3.3407723457526686;1119.1693777500172;-250.0;1369.1693777500172
0.10800000000000007;-9980380268.0;-9980299964.0;3975.0;-21.069784115984344;-33.239294146513835;5.81497751100007;1648.258129882355;-250.0;1898.258129882355
0.11200000000000007;-9980422848.0;-9980409661.0;29393.0;-10.645014053891156;-27.424316635513765;8.118112519529422;2606.192515523297;-250.0;2856.192515523297
0.11600000000000008;-9980413858.0;-9980486885.0;64037.0;2.247422516482133;-19.306204115984343;12.503410062093186;3223.1091425933223;-250.0;3473.1091425933223
0.12000000000000008;-9980357391.0;-9980514096.0;100238.0;14.116722684310291;-6.802794053891157;15.064496570373288;2967.3250419570395;-166.66666666666666;3133.9917086237065
0.12400000000000008;-9980263644.0;-9980481050.0;123659.0;23.436787045576775;8.261702516482131;13.27456016782816;2330.016090316621;-83.33333333333333;2413.349423649954
0.12800000000000009;-9980143982.0;-9980394905.0;131261.0;29.915482776761248;21.53626268431029;9.776184361266484;1619.6739327961182;83.33333333333333;1536.340599462785
0.1320000000000001;-9980009533.0;-9980269656.0;125674.0;33.61237649946157;31.312447045576775;6.143475731184473;924.2234306750801;166.66666666666666;757.5567640084134
0.1360000000000001;-9979869032.0;-9980119833.0;110300.0;35.125268299704246;37.45592277676125;2.774453722700322;378.2229500606693;250.0;128.2229500606693
0.1400000000000001;-9979727540.0;-9979958912.0;89880.0;35.37295929352002;40.23037649946157;0.28769180024267627;61.9227484539433;333.3333333333333;-271.41058487939
0.1440000000000001;-9979591482.0;-9979796840.0;69300.0;34.01442063281158;40.51806829970425;-0.9871090061842267;-339.63466517711004;333.3333333333333;-672.9679985104434
0.1480000000000001;-9979472948.0;-9979638717.0;47235.0;29.633422034818114;39.53095929352002;-2.682438660708442;-1095.2496494983661;333.3333333333333;-1428.5829828316994
0.1520000000000001;-9979381032.0;-9979491323.0;18375.0;22.979159147195585;36.84852063281158;-6.112598597993465;-1663.5657219056322;250.0;-1913.5657219056322
0.1560000000000001;-9979316669.0;-9979368380.0;-12652.0;16.090763778781746;30.735922034818113;-8.515882887622528;-1722.0988421034597;250.0;-1972.0988421034597
0.16000000000000011;-9979277557.0;-9979279500.0;-37169.0;9.777861148114575;22.220039147195585;-8.35941536841384;-1578.2256576667928;250.0;-1828.2256576667928
0.16400000000000012;-9979259266.0;-9979224058.0;-53499.0;4.572736459052544;13.860623778781745;-7.29270263066717;-1301.2811722655076;166.66666666666666;-1467.9478389321741
0.16800000000000012;-9979254891.0;-9979197787.0;-61479.0;1.0939348384964689;6.567921148114575;-5.68392468906203;-869.7004051390188;83.33333333333333;-953.0337384723522
0.17200000000000013;-9979257416.0;-9979194252.0;-60639.0;-0.6312780152978688;0.8839964590525446;-3.4284016205560754;-431.3032134485844;0.0;-431.3032134485844
0.17600000000000013;-9979261740.0;-9979204429.0;-52987.0;-1.0811373053301057;-2.544405161503531;-1.266092853794338;-112.46482250805923;0.0;-112.46482250805923
0.18000000000000013;-9979265215.0;-9979219670.0;-42070.0;-0.8687073357541364;-3.8104980152978687;0.20516070996776303;53.10749239399232;0.0;53.10749239399232
0.18400000000000014;-9979267106.0;-9979234091.0;-31124.0;-0.47262291945131557;-3.6053373053301057;0.8691899695759693;99.02110407570521;0.0;99.02110407570521
0.18800000000000014;-9979267708.0;-9979245035.0;-22071.0;-0.1505304523355583;-2.7361473357541364;0.9392644163028208;80.52311677893931;0.0;80.52311677893931
0.19200000000000014;-9979267617.0;-9979252222.0;-15486.0;0.022589549542168432;-1.7968829194513156;0.7171924671157575;43.280000469431684;0.0;43.280000469431684
0.19600000000000015;-9979267326.0;-9979256540.0;-11077.0;0.07285594708688096;-1.0796904523355582;0.4376600018777266;12.566599386178133;0.0;12.566599386178133
0.20000000000000015;-9979267098.0;-9979259108.0;-8218.0;0.05696672612943433;-0.6420304504578316;0.2218063975447126;-3.97230523936166;0.0;-3.97230523936166
0.20400000000000015;-9979267009.0;-9979260788.0;-6310.0;0.02231315514547622;-0.420224052913119;0.09859077904255331;-8.663392745989526;0.0;-8.663392745989526
0.20800000000000016;-9979267031.0;-9979262074.0;-4935.0;-0.005470193802360364;-0.3216332738705657;0.047846429016041914;-6.945837236959146;0.0;-6.945837236959146
0.21200000000000016;-9979267107.0;-9979263169.0;-3862.0;-0.019167475766995488;-0.27378684485452376;0.03659665105216342;-3.424320491158781;83.33333333333333;-86.75765382449211
0.21600000000000016;-9979267194.0;-9979264117.0;-2990.0;-0.02158380560906106;-0.23719019380236034;0.03862271803536488;-0.6040824605163929;166.66666666666666;-167.27074912718305
0.22000000000000017;-9979267267.0;-9979264911.0;-2283.0;-0.01834934827199535;-0.19856747576699546;0.04000367015793441;0.808614334266427;250.0;-249.19138566573358
0.22400000000000017;-9979267323.0;-9979265545.0;-1722.0;-0.01397818422029436;-0.15856380560906105;0.0368944573370657;1.0927910129252478;250.0;-248.90720898707474
0.22800000000000017;-9979267366.0;-9979266031.0;-1292.0;-0.010748574065126304;-0.12166934827199535;0.030171164051701005;0.8074025387920141;250.0;-249.19259746120798
0.23200000000000018;-9979267402.0;-9979266396.0;-970.0;-0.009139573977661202;-0.09149818422029435;0.022549610155168043;0.40225002186627556;333.3333333333333;-332.93108331146703
0.23600000000000018;-9979267437.0;-9979266671.0;-731.0;-0.008715106671496031;-0.0689485740651263;0.01594900008746511;0.10611682654129273;333.3333333333333;-333.22721650679205
0.24000000000000019;-9979267473.0;-9979266882.0;-555.0;-0.008839206531336012;-0.052999573977661196;0.010984467306165167;-0.03102496495999531;250.0;-250.03102496495998
0.2440000000000002;-9979267509.0;-9979267050.0;-423.0;-0.009042695549727179;-0.04201510667149603;0.007795900140160024;-0.050872254597791614;166.66666666666666;-166.71753892126443
0.2480000000000002;-9979267545.0;-9979267186.0;-323.0;-0.009106034675951632;-0.034219206531336005;0.005796510981608827;-0.01583478155611339;83.33333333333333;-83.34916811488944
0.25200000000000017;-9979267581.0;-9979267299.0;-246.0;-0.008995483784524534;-0.02842269554972718;0.004556660873775549;0.0276377228567745;83.33333333333333;-83.30569561047655
0.25600000000000017;-9979267616.0;-9979267394.0;-187.0;-0.00876510198118148;-0.02386603467595163;0.0036505508914270943;0.05759545083576338;-83.33333333333333;83.39092878416909
0.2600000000000002;-9979267650.0;-9979267474.0;-142.0;-0.008483166464115286;-0.020215483784524535;0.0029303818033430545;0.07048387926654855;-166.66666666666666;166.73715054593322
0.2640000000000002;-9979267683.0;-9979267543.0;-107.0;-0.008197073375529164;-0.01728510198118148;0.0023819355170661936;0.07152327214653056;-250.0;250.07152327214652
0.2680000000000002;-9979267715.0;-9979267602.0;-81.0;-0.007927377144237987;-0.014903166464115287;0.0018460930885861229;0.06742405782279426;-250.0;250.0674240578228
0.2720000000000002;-9979267745.0;-9979267654.0;-61.0;-0.007675853733369324;-0.013057073375529164;0.0014696962312911767;0.06288085271716573;-250.0;250.06288085271717
0.2760000000000002;-9979267775.0;-9979267700.0;-45.0;-0.007436054564541689;-0.011587377144237987;0.0012115234108686628;0.05994979220690891;-333.3333333333333;333.3932831255402
0.2800000000000002;-9979267804.0;-9979267741.0;-34.0;-0.007200745365206841;-0.010375853733369324;0.0008997991688276356;0.058827299833711905;-333.3333333333333;333.392160633167
0.2840000000000002;-9979267832.0;-9979267778.0;-26.0;-0.006965201871467512;-0.009476054564541689;0.000715309199334848;0.05888587343483233;-333.3333333333333;333.3922192067682
0.2880000000000002;-9979267859.0;-9979267813.0;-19.0;-0.006727550016627753;-0.00876074536520684;0.0006555434937393287;0.059412963709939766;-166.66666666666666;166.7260796303766
0.2920000000000002;-9979267885.0;-9979267845.0;-14.0;-0.0064877941287861665;-0.008105201871467512;0.0005376518548397598;0.05993897196039655;-83.33333333333333;83.39327230529372
0.2960000000000002;-9979267910.0;-9979267875.0;-10.0;-0.006246689316879368;-0.007567550016627752;0.00047975588784158595;0.06027620297669963;0.0;0.06027620297669963
0.3000000000000002;-9979267934.0;-9979267903.0;-7.0;-0.006005001654360434;-0.007087794128786166;0.00042110481190679814;0.060421915629733446;0.0;0.060421915629733446
0.3040000000000002;-9979267957.0;-9979267929.0;-5.0;-0.005763203769597028;-0.006666689316879368;0.0003616876625189341;0.06044947119085149;0.0;0.06044947119085149
0.3080000000000002;-9979267979.0;-9979267954.0;-3.0;-0.005521466189674184;-0.006305001654360434;0.0003617978847634063;0.06043439498071095;0.0;0.06043439498071095
0.3120000000000002;-9979268000.0;-9979267977.0;-2.0;-0.005279774776136459;-0.005943203769597028;0.0003017375799228431;0.060422853384431346;0.0;0.060422853384431346
0.3160000000000002;-9979268020.0;-9979267999.0;-1.0;-0.005038048449269988;-0.005641466189674185;0.00030169141353772553;0.060431581716617694;0.0;0.060431581716617694
0.32000000000000023;-9979268039.0;-9979268020.0;0.0;-0.004796210168919603;-0.005339774776136459;0.00030172632686647095;0.06045957008759639;0.0;0.06045957008759639
0.32400000000000023;-9979268058.0;-9979268040.0;1.0;-0.004554216942639158;-0.005038048449269988;0.0003018382803503857;0.06049830657011107;0.0;0.06049830657011107
0.32800000000000024;-9979268075.0;-9979268058.0;0.0;-0.004312058382992005;-0.0047362101689196025;0.00018199322628044412;0.06053963991178835;0.0;0.06053963991178835
0.33200000000000024;-9979268091.0;-9979268076.0;1.0;-0.004069741992015724;-0.004554216942639158;0.00030215855964715356;0.060579097744070276;0.0;0.060579097744070276
0.33600000000000024;-9979268106.0;-9979268093.0;2.0;-0.003827279599846502;-0.004252058382992005;0.00030231639097628125;0.06061559804230543;0.0;0.06061559804230543
0.34000000000000025;-9979268121.0;-9979268108.0;2.0;-0.0035846856334796904;-0.003949741992015724;0.0002424623921692213;0.06064849159170295;0.0;0.06064849159170295
0.34400000000000025;-9979268134.0;-9979268122.0;1.0;-0.003341965575173519;-0.0037072795998465023;0.00018259396636681208;0.0606800145765428;0.0;0.0606800145765428
0.34800000000000025;-9979268147.0;-9979268136.0;2.0;-0.003099124907186224;-0.00352468563347969;0.0003027200583061709;0.060710166996823765;0.0;0.060710166996823765
0.35200000000000026;-9979268158.0;-9979268148.0;1.0;-0.0028561670919966878;-0.0032219655751735193;0.00018284066798729534;0.06073945379738409;0.0;0.06073945379738409
0.35600000000000026;-9979268168.0;-9979268160.0;2.0;-0.002613094437924167;-0.003039124907186224;0.00030295781518953607;0.06076816351813024;0.0;0.06076816351813024
0.36000000000000026;-9979268178.0;-9979268170.0;2.0;-0.0023699092532879166;-0.002736167091996688;0.00024307265407252096;0.060796296159062554;0.0;0.060796296159062554
0.36400000000000027;-9979268186.0;-9979268179.0;1.0;-0.0021266152891067282;-0.002493094437924167;0.0001831851846362505;0.060823491045297086;0.0;0.060823491045297086
0.36800000000000027;-9979268194.0;-9979268188.0;2.0;-0.0018832162963993925;-0.0023099092532879164;0.00030329396418118807;0.06084974817683394;0.0;0.06084974817683394
0.3720000000000003;-9979268200.0;-9979268196.0;2.0;-0.001639715449104887;-0.0020066152891067284;0.00024339899270733574;0.06087521182362635;0.0;0.06087521182362635
0.3760000000000003;-9979268206.0;-9979268203.0;3.0;-0.0013961156326222812;-0.0017632162963993926;0.00030350084729450556;0.06089995412065147;0.0;0.06089995412065147
0.3800000000000003;-9979268211.0;-9979268208.0;2.0;-0.0011524220406699016;-0.001459715449104887;0.0001835998164826057;0.0609233979880949;0.0;0.0609233979880949
0.3840000000000003;-9979268214.0;-9979268213.0;2.0;-0.0009086384242665385;-0.0012761156326222814;0.0002436935919523796;0.06094590410084079;0.0;0.06094590410084079
0.3880000000000003;-9979268217.0;-9979268217.0;3.0;-0.0006647662261117272;-0.0010324220406699018;0.0003037836164033632;0.060968049538702815;0.0;0.060968049538702815
0.3920000000000003;-9979268219.0;-9979268219.0;2.0;-0.00042081208262332876;-0.0007286384242665386;0.00018387219815481132;0.06098853587209962;0.0;0.06098853587209962
0.3960000000000003;-9979268219.0;-9979268221.0;2.0;-0.00017677743650087787;-0.0005447662261117272;0.00024395414348839847;0.06100866153061272;0.0;0.06100866153061272
0.4000000000000003;-9979268219.0;-9979268222.0;3.0;6.733338415702028e-05;-0.00030081208262332877;0.0003040346461224509;0.06102770516447454;0.0;0.06102770516447454
0.4040000000000003;-9979268218.0;-9979268222.0;3.0;0.0003115166283315748;3.22256349912211e-06;0.00024411082065789818;0.061045811043638626;0.0;0.061045811043638626
0.4080000000000003;-9979268082.0;-9979268222.0;4.0;0.034000215357008506;0.0002473333841570203;0.00030418324417455446;8.422174682169233;0.0;8.422174682169233
0.4120000000000003;-9979267461.0;-9979268220.0;138.0;0.15525090288941684;0.0005515166283315748;0.041728698728676926;30.312671883102084;0.0;30.312671883102084
0.4160000000000003;-9979266070.0;-9979268051.0;590.0;0.34772908463779106;0.0422802153570085;0.14837068753240834;48.11954543709356;0.0;48.11954543709356
0.4200000000000003;-9979260067.0;-9979267289.0;1219.0;1.500658543220481;0.19065090288941683;0.23021818174837422;288.23236464567253;0.0;288.23236464567253
0.4240000000000003;-9979199999.0;-9979265606.0;5539.0;15.016940015125828;0.42086908463779105;1.4121294585826898;3379.0703679763365;0.0;3379.0703679763365
0.4280000000000003;-9979199999.0;-9979258275.0;58276.0;0.0;1.832998543220481;16.680501471905348;-3754.2350037814567;0.0;-3754.2350037814567
0.43200000000000033;-9979130101.0;-9979184221.0;-15778.0;17.474611359354437;18.513500015125828;-19.46018001512583;4368.652839838609;0.0;4368.652839838609
0.43600000000000033;-9979041636.0;-9979188007.0;57906.0;22.11630460021575;-0.94668;21.89565135935444;1160.4233102153278;0.0;1160.4233102153278
0.44000000000000034;-9978934961.0;-9979104212.0;62576.0;26.668796078250622;20.948971359354438;4.9218932408613085;1138.1228695087184;83.33333333333333;1054.7895361753851
0.44400000000000034;-9978815894.0;-9979000729.0;65768.0;29.766782995008164;25.870864600215747;4.744011478034874;774.4967291893854;166.66666666666666;607.8300625227188
0.44800000000000034;-9978690510.0;-9978878270.0;62376.0;31.34589002350093;30.61487607825062;2.8944669167575405;394.77675712319194;250.0;144.77675712319194
0.45200000000000035;-9978563255.0;-9978744233.0;53723.0;31.813829848217445;33.50934299500816;1.0599270284927726;116.98495617912829;250.0;-133.0150438208717
0.45600000000000035;-9978440277.0;-9978605956.0;42701.0;30.744525362783914;34.569270023500934;-0.19338017528348672;-267.32612135838264;250.0;-517.3261213583826
0.46000000000000035;-9978332406.0;-9978468453.0;28176.0;26.96767018340175;34.37588984821745;-1.9408044854335316;-944.2137948455409;250.0;-1194.2137948455409
0.46400000000000036;-9978247644.0;-9978338713.0;6307.0;21.19047298659822;32.435085362783916;-5.088995179382167;-1444.2992992008828;250.0;-1694.2992992008828
0.46800000000000036;-9978186803.0;-9978229329.0;-18315.0;15.210344221847647;27.34609018340175;-7.25451719680353;-1495.032191187643;250.0;-1745.032191187643
0.47200000000000036;-9978147684.0;-9978148963.0;-37840.0;9.77964577147891;20.09157298659822;-7.151628764750573;-1357.6746125921843;166.66666666666666;-1524.341279258851
0.47600000000000037;-9978126277.0;-9978097204.0;-50480.0;5.351667811885267;12.939944221847647;-6.189098450368737;-1106.9944898984106;166.66666666666666;-1273.6611565650771
0.48000000000000037;-9978116695.0;-9978070201.0;-56076.0;2.395669456491676;6.750845771478909;-4.763737959593641;-738.9995888483979;83.33333333333333;-822.3329221817312
0.4840000000000004;-9978113138.0;-9978062253.0;-54442.0;0.8892288040783513;1.9871078118852679;-2.857958355393592;-376.61016310333116;83.33333333333333;-459.9434964366645
0.4880000000000004;-9978111485.0;-9978065736.0;-47402.0;0.413282658564662;-0.870850543508324;-1.0840406524133246;-118.98653637842231;0.0;-118.98653637842231
0.4920000000000004;-9978112722.0;-9978073555.0;-37930.0;-0.3093256905722406;-1.9548911959216486;0.09237385448631086;-180.65208728422564;0.0;-180.65208728422564
0.4960000000000004;-9978124296.0;-9978081005.0;-31717.0;-2.8936008840608016;-1.8625173414353378;-0.34982834913690253;-646.0687983721402;0.0;-646.0687983721402
0.5000000000000003;-9978152839.0;-9978089854.0;-34442.0;-7.1357431021719515;-2.2123456905722403;-2.747775193488561;-1060.5355545277876;0.0;-1060.5355545277876
0.5040000000000003;-9978201256.0;-9978109694.0;-43145.0;-12.104168922536571;-4.960120884060801;-4.76432221811115;-1242.1064550911549;0.0;-1242.1064550911549
0.5080000000000003;-9978272354.0;-9978148591.0;-52665.0;-17.774413274098336;-9.724443102171952;-5.53962582036462;-1417.5610878904413;-83.33333333333333;-1334.2277545571078
