Zeit[sec];Sollposition[°];Istposition[°];Positionsschleppfehler[°];Sollgeschwindigkeit[°/s];Istgeschwindigkeit[°/s];Geschwindigkeitsdifferenz[°/s];Sollbeschleunigung[°/s*s];Istbeschleunigung[°/s*s];Beschleunigungsdifferenz[°/s*s]
0.0;0.0;5.0;-5.0;-0.0;-0.00021499999999999997;0.0;0.0;0.0;0.0
0.004;0.0;5.0;-5.0;-0.0;-0.00021499999999999997;0.0;0.0;0.0;0.0
0.008;0.0;5.0;-5.0;-0.0;-0.00021499999999999997;0.0;0.0;0.0;0.0
0.012;0.0;5.0;-5.0;-0.0;-0.00021499999999999997;0.0;0.0;0.0;0.0
0.016;0.0;5.0;-5.0;-0.0;-0.00021499999999999997;0.0;0.0;0.0;0.0
0.02;0.0;5.0;-5.0;-0.0;-0.00021499999999999997;0.0;0.0;0.0;0.0
0.024;0.0;5.0;-5.0;-0.0;-0.00021499999999999997;0.0;0.0;0.0;0.0
0.028;0.0;5.0;-5.0;-0.0;-0.00021499999999999997;0.0;0.0;0.0;0.0
0.032;0.0;5.0;-5.0;-0.0;-0.00021499999999999997;0.0;0.0;0.0;0.0
0.036000000000000004;0.0;5.0;-5.0;-0.0;-0.00021499999999999997;0.0;0.0;0.0;0.0
0.04000000000000001;0.0;5.0;-5.0;-0.0;-0.00021499999999999997;0.0;0.0;0.0;0.0
0.04400000000000001;0.0;5.0;-5.0;-0.0;-0.00021499999999999997;0.0;0.0;0.0;0.0
0.048000000000000015;0.0;5.0;-5.0;-0.0;-0.00021499999999999997;0.0;0.0;0.0;0.0
0.05200000000000002;0.0;5.0;-5.0;-0.0;-0.00021499999999999997;0.0;0.0;0.0;0.0
0.05600000000000002;-226.0;5.0;-5.0;-0.056578874619718424;-0.00021499999999999997;0.0;-14.144718654929607;0.0;-14.144718654929607
0.060000000000000026;-2481.0;5.0;-231.0;-0.5638465561347792;-0.00021499999999999997;-0.06629687461971842;-126.81692037876519;0.0;-126.81692037876519
0.06400000000000003;-13567.0;-261.0;-2220.0;-2.7714201594385472;-0.06651187461971843;-0.5927946815150608;-551.893400825942;0.0;-551.893400825942
0.06800000000000003;-50209.0;-2898.0;-10669.0;-9.160488606354834;-0.6593065561347792;-2.570880603303768;-1597.2671117290718;0.0;-1597.2671117290718
0.07200000000000004;-143163.0;-15818.0;-34391.0;-23.238636773325545;-3.230187159438547;-7.409114446916288;-3519.537041742678;0.0;-3519.537041742678
0.07600000000000004;-337577.0;-58375.0;-84788.0;-48.60328274504826;-10.639301606354834;-16.24521916697071;-6341.161492930679;0.0;-6341.161492930679
0.08000000000000004;-688718.0;-165913.0;-171664.0;-87.78526726570442;-26.884520773325544;-29.100313971722716;-9795.49613016404;-83.33333333333333;-9712.162796830706
0.08400000000000005;-1256468.0;-389852.0;-298866.0;-141.93748742204204;-55.98483474504826;-44.651670520656154;-13538.055039084406;-250.0;-13288.055039084406
0.08800000000000005;-2102523.0;-792398.0;-464070.0;-211.51374788179285;-100.63650526570441;-61.25599215633761;-17394.065114937704;-500.0;-16894.065114937704
0.09200000000000005;-3289687.0;-1439967.0;-662556.0;-296.7910320956343;-161.89249742204203;-78.11115845975081;-21319.321053460364;-833.3333333333334;-20485.987720127032
0.09600000000000006;-4879899.0;-2399981.0;-889706.0;-397.55295409318813;-240.00365588179284;-95.04473421384148;-25190.480499388457;-1250.0;-23940.480499388457
0.10000000000000006;-6930270.0;-3740174.0;-1139725.0;-512.5928316668501;-335.0483900956343;-111.51273899755381;-28759.96939341549;-1916.6666666666667;-26843.30272674882
0.10400000000000006;-9489428.0;-5526418.0;-1403852.0;-639.7894329726258;-446.56112909318813;-126.39733857366195;-31799.150326443934;-2666.6666666666665;-29132.48365977727
0.10800000000000007;-12595292.0;-7818251.0;-1671177.0;-776.4659530194983;-572.9584676668501;-138.6915763057757;-34169.13001171812;-3583.3333333333335;-30585.79667838479
0.11200000000000007;-16273840.0;-10664851.0;-1930441.0;-919.6370244885326;-711.6500439726258;-147.82487204687254;-35792.76786725856;-4500.0;-31292.76786725856
0.11600000000000008;-20539477.0;-14102750.0;-2171090.0;-1066.4091718515103;-859.4749160194983;-153.5189784690342;-36693.03684074444;-5583.333333333333;-31109.703507411108
0.12000000000000008;-25397605.0;-18154725.0;-2384752.0;-1214.532022399745;-1012.9938944885325;-155.95961336297773;-37030.712637058685;-6666.666666666667;-30364.045970392017
0.12400000000000008;-30848309.0;-22830539.0;-2567066.0;-1362.6757214797465;-1168.9535078515103;-155.96235254823478;-37035.92477000035;-7916.666666666667;-29119.258103333683
0.12800000000000009;-36889580.0;-28130202.0;-2718107.0;-1510.3177627884515;-1324.915860399745;-154.63846208000132;-36910.51032717627;-9083.333333333334;-27827.176993842935
0.1320000000000001;-43519332.0;-34048419.0;-2841161.0;-1657.4378627906174;-1479.5543224797464;-152.9333633087051;-36780.02500054146;-10416.666666666666;-26363.358333874792
0.1360000000000001;-50736213.0;-40578369.0;-2940963.0;-1804.220318785746;-1632.4876857884515;-151.4115860021659;-36695.613998782166;-11583.333333333334;-25112.28066544883
0.1400000000000001;-58539659.0;-47713966.0;-3022247.0;-1950.861369578355;-1783.8992717906174;-150.2776679951287;-36660.262698152226;-12750.0;-23910.262698152223
0.1440000000000001;-66929614.0;-55450673.0;-3088986.0;-2097.488520956846;-1934.176939785746;-149.51082779260878;-36656.787844622784;-13916.666666666666;-22740.121177956116
0.1480000000000001;-75906232.0;-63785424.0;-3144190.0;-2244.15453759287;-2083.687767578355;-149.00092337849128;-36666.50415900597;-15083.333333333334;-21583.170825672634
0.1520000000000001;-85469686.0;-72716178.0;-3190054.0;-2390.863376802622;-2232.688690956846;-148.6381686360237;-36677.209802438025;-16333.333333333334;-20343.876469104696
0.1560000000000001;-95620082.0;-82241485.0;-3228201.0;-2537.5989256335306;-2381.32685959287;-148.34916020975243;-36683.88720772714;-17416.666666666668;-19267.220541060473
0.16000000000000011;-106357458.0;-92360189.0;-3259893.0;-2684.34386693293;-2529.6760198026222;-148.0983048309081;-36686.235324849804;-18583.333333333332;-18102.90199151647
0.16400000000000012;-117681809.0;-103071286.0;-3286172.0;-2831.087421181551;-2677.7743246335303;-147.87493829939922;-36685.88856215524;-19750.0;-16935.88856215524
0.16800000000000012;-129593112.0;-114373883.0;-3307926.0;-2977.8257454089553;-2825.6492629329296;-147.67897624862144;-36684.58105685113;-20916.666666666668;-15767.914390184462
0.17200000000000013;-142091350.0;-126267195.0;-3325917.0;-3124.559316055972;-2973.328239181551;-147.51193722740436;-36683.39266175417;-22083.333333333332;-14600.059328420837
0.17600000000000013;-155176459.0;-138750555.0;-3340795.0;-3271.277076214491;-3120.8401764089554;-147.3733246470165;-36679.44003962976;-23166.666666666668;-13512.773372963085
0.18000000000000013;-168848097.0;-151823409.0;-3353050.0;-3417.9093428677547;-3268.213501055972;-147.24472515851903;-36658.066663315934;-24416.666666666668;-12241.399996649267
0.18400000000000014;-183105238.0;-165485241.0;-3362856.0;-3564.2852029696032;-3415.458226214491;-147.05392465326395;-36593.96502546212;-25500.0;-11093.965025462127
0.18800000000000014;-197945225.0;-179735289.0;-3369949.0;-3709.9965963332147;-3562.512150867755;-146.68085910184845;-36427.84834090287;-26750.0;-9677.84834090287
0.19200000000000014;-213360877.0;-194572061.0;-3373164.0;-3853.912609012441;-3709.1930099696033;-145.84963836361158;-35979.00316980656;-27833.333333333332;-8145.669836473228
0.19600000000000015;-229335742.0;-209992231.0;-3368646.0;-3993.7160721847204;-3855.042648333215;-143.7217386792263;-34950.865793069854;-29000.0;-5950.865793069852
0.20000000000000015;-245840608.0;-225987288.0;-3348454.0;-4126.216312916509;-3998.764387012441;-138.93520717227875;-33125.06018294721;-30083.333333333332;-3041.7268496138768
0.20400000000000015;-262833353.0;-242538086.0;-3302522.0;-4248.185996445031;-4137.69959418472;-130.52516473178912;-30492.420882130544;-31166.666666666668;674.2457845361223
0.20800000000000016;-280261151.0;-259610985.0;-3222368.0;-4356.949393474007;-4268.224758916509;-118.5230615285227;-27190.849257243826;-32166.666666666668;4975.817409422842
0.21200000000000016;-298063635.0;-277157976.0;-3103175.0;-4450.620761716199;-4386.747820445032;-103.63809802897504;-23417.842060548082;-33083.333333333336;9665.491272785253
0.21600000000000016;-316176332.0;-295119519.0;-2944116.0;-4528.173999954786;-4490.385918474007;-86.8318312421925;-19388.309559646812;-33750.0;14361.690440353186
0.22000000000000017;-334533671.0;-313428389.0;-2747943.0;-4589.334709857352;-4577.217749716199;-69.1177992385874;-15290.177475641485;-34250.0;18959.822524358515
0.22400000000000017;-353071539.0;-332013731.0;-2519940.0;-4634.466686060987;-4646.335548954787;-51.35658090256584;-11282.994050908655;-34416.666666666664;23133.67261575801
0.22800000000000017;-371730845.0;-350804499.0;-2267040.0;-4664.826370256671;-4697.6921298573525;-34.25727620363432;-7589.921048921042;-34333.333333333336;26743.412284412294
0.23200000000000018;-390462350.0;-369732296.0;-1998549.0;-4682.875875197189;-4731.949406060987;-18.81457119568404;-4512.376235129523;-34000.0;29487.623764870477
0.23600000000000018;-409229969.0;-388735351.0;-1726999.0;-4691.904474779193;-4750.763977256671;-6.372854940518664;-2257.1498955010156;-33333.333333333336;31076.18343783232
0.24000000000000019;-428010703.0;-407763898.0;-1466071.0;-4695.183368176091;-4757.1368321971895;2.1913044179964345;-819.7233492244322;-32583.333333333332;31763.6099841089
0.2440000000000002;-446792283.0;-426783680.0;-1227023.0;-4695.39474154015;-4754.945527779193;7.000170603102561;-52.84334101474997;-31583.333333333332;31530.48999231858
0.2480000000000002;-465569993.0;-445775461.0;-1016822.0;-4694.427385847276;-4747.9453571760905;8.827269635940866;241.83892321843814;-30416.666666666668;30658.505589885106
0.25200000000000017;-484343461.0;-464731933.0;-838060.0;-4693.366776291838;-4739.11808754015;8.65412169287356;265.152388859633;-29166.666666666668;29431.8190555263
0.25600000000000017;-503114067.0;-483653788.0;-689673.0;-4692.651296679304;-4730.463965847276;7.441250555438273;178.86990313331808;-27833.333333333332;28012.203236466652
0.2600000000000002;-521883358.0;-502545878.0;-568189.0;-4692.322470802555;-4723.022715291838;5.939291612533452;82.20646918744023;-26666.666666666668;26748.873135854108
0.2640000000000002;-540652378.0;-521414211.0;-469147.0;-4692.254828986121;-4717.083423679304;4.587631876749583;16.910454108483464;-25333.333333333332;25350.243787441817
0.2680000000000002;-559421598.0;-540264194.0;-388184.0;-4692.304604677262;-4712.495791802555;3.549050816433919;-12.443922785450923;-24166.666666666668;24154.22274388122
0.2720000000000002;-578191096.0;-559099980.0;-321618.0;-4692.374370973948;-4708.946740986121;2.812562308858105;-17.441574171471075;-22833.333333333332;22815.89175916186
0.2760000000000002;-596960781.0;-577924516.0;-266580.0;-4692.420981430193;-4706.134178677263;2.296867703314092;-11.652614061176791;-21666.666666666668;21655.01405260549
0.2800000000000002;-615730535.0;-596739865.0;-220916.0;-4692.438236116632;-4703.837310973949;1.9169415437554562;-4.313671609679659;-20416.666666666668;20412.352995056986
0.2840000000000002;-634500280.0;-615547546.0;-182989.0;-4692.436150610659;-4701.920369430193;1.6136063135618315;0.5213764932250342;-19333.333333333332;19333.854709826555
0.2880000000000002;-653269988.0;-634348773.0;-151507.0;-4692.426773626645;-4700.306763116631;1.3558115059722695;2.344246003531225;-18166.666666666668;18169.0109126702
0.2920000000000002;-672039661.0;-653144576.0;-125412.0;-4692.417989156813;-4698.950951610659;1.131461984014095;2.1961174579701037;-17000.0;17002.19611745797
0.2960000000000002;-690809313.0;-671935853.0;-103808.0;-4692.412810435348;-4697.819489626645;0.9377564698324932;1.2946803662998718;-15750.0;15751.2946803663
0.3000000000000002;-709578958.0;-690723379.0;-85934.0;-4692.411071914254;-4696.8817331568125;0.773760721464896;0.43463027350298944;-14583.333333333334;14583.767963606837
0.3040000000000002;-728348605.0;-709507810.0;-71148.0;-4692.411379535759;-4696.107972435348;0.6375365210942618;-0.07690537631788175;-13500.0;13499.923094623682
0.3080000000000002;-747118255.0;-728289691.0;-58914.0;-4692.412383487854;-4695.470435914253;0.5257543784946392;-0.25098802370848716;-12333.333333333334;12333.082345309625
0.3120000000000002;-765887909.0;-747069469.0;-48786.0;-4692.4132748600405;-4694.944681535759;0.43450004790520325;-0.22284304668573895;-11166.666666666666;11166.44382361998
0.3160000000000002;-784657565.0;-765847509.0;-40400.0;-4692.413774991362;-4694.5101814878535;0.3597066278134662;-0.12503283028308942;-10000.0;9999.874967169717
0.32000000000000023;-803427222.0;-784624110.0;-33455.0;-4692.413925109347;-4694.15047486004;0.29813486867806205;-0.03752949623958557;-8833.333333333334;8833.295803837094
0.32400000000000023;-822196878.0;-803399519.0;-27703.0;-4692.413877877728;-4693.852339991362;0.24718588201540115;0.01180790468424675;-7666.666666666667;7666.678474571351
0.32800000000000024;-840966534.0;-822173939.0;-22939.0;-4692.413770876683;-4693.605154109347;0.20489923161858314;0.026750261213237536;-6500.0;6500.026750261213
0.33200000000000024;-859736190.0;-840947540.0;-18994.0;-4692.413682064037;-4693.400254877728;0.16974200104505144;0.022203161506695324;-5500.0;5500.022203161507
0.33600000000000024;-878505845.0;-859720462.0;-15728.0;-4692.413635282825;-4693.230512876683;0.14052681264638522;0.01169530287370435;-4416.666666666667;4416.678361969541
0.34000000000000025;-897275500.0;-878492821.0;-13024.0;-4692.4136235588085;-4693.089986064037;0.11631878121079353;0.0029310042464203434;-3333.3333333333335;3333.33626433758
0.34400000000000025;-916045156.0;-897264715.0;-10785.0;-4692.413630394779;-4692.973667282826;0.09628872401754052;-0.0017089926132030087;-2416.6666666666665;2416.6649576740533
0.34800000000000025;-934814811.0;-916036224.0;-8932.0;-4692.413641959103;-4692.877378558808;0.07967216402903432;-0.002891081066991319;-1583.3333333333333;1583.3304422522663
0.35200000000000026;-953584467.0;-934807414.0;-7397.0;-4692.413650891466;-4692.797706394779;0.06599343567631877;-0.002233090754089062;-1000.0;999.9977669092459
0.35600000000000026;-972354122.0;-953578340.0;-6127.0;-4692.413655286788;-4692.731712959103;0.05460106763712247;-0.0010988303529302357;-416.6666666666667;416.66556783631376
0.36000000000000026;-991123778.0;-972349048.0;-5074.0;-4692.41365615819;-4692.677111891466;0.045274604678525066;-0.00021785058379464317;0.0;-0.00021785058379464317
0.36400000000000027;-1009893433.0;-991119575.0;-4203.0;-4692.41365528573;-4692.631837286787;0.03745212859757885;0.00021811501937918365;250.0;-249.99978188498062
0.36800000000000027;-1028663089.0;-1009889952.0;-3481.0;-4692.413654059249;-4692.59438515819;0.03104687246013782;0.00030662022254546173;416.6666666666667;-416.66636004644414
0.3720000000000003;-1047432744.0;-1028660205.0;-2884.0;-4692.413653170964;-4692.5633382857295;0.0256722264803102;0.0002220713213318959;416.6666666666667;-416.66644459534535
0.3760000000000003;-1066202400.0;-1047430355.0;-2389.0;-4692.413652764147;-4692.537666059249;0.02128588828509237;0.0001017042450257577;500.0;-499.999898295755
0.3800000000000003;-1084972055.0;-1066200420.0;-1980.0;-4692.413652708055;-4692.516380170964;0.017587406817256124;1.402281668561045e-05;500.0;-499.9999859771833
0.3840000000000003;-1103741711.0;-1084970415.0;-1640.0;-4692.413652813522;-4692.498792764147;0.014620056091189326;-2.6366706151748076e-05;416.6666666666667;-416.66669303337284
0.3880000000000003;-1122511366.0;-1103740351.0;-1360.0;-4692.413652942338;-4692.484172708056;0.012039894533700135;-3.220384314772673e-05;333.3333333333333;-333.33336553717646
0.3920000000000003;-1141281022.0;-1122510239.0;-1127.0;-4692.413653029709;-4692.472132813522;0.01001887118400191;-2.184287950512953e-05;166.66666666666666;-166.66668850954616
0.3960000000000003;-1160050677.0;-1141280087.0;-935.0;-4692.413653066708;-4692.462113942338;0.008255912628555961;-9.249788490706123e-06;166.66666666666666;-166.66667591645515
0.4000000000000003;-1178820333.0;-1160049902.0;-775.0;-4692.413653069071;-4692.453858029709;0.006879963000756106;-5.907168088015169e-07;166.66666666666666;-166.66666725738347
0.4040000000000003;-1197589988.0;-1178819689.0;-644.0;-4692.413653057008;-4692.446978066709;0.005632997637803783;3.01588443107903e-06;166.66666666666666;-166.66666365078223
0.4080000000000003;-1216359644.0;-1197589454.0;-534.0;-4692.413653043452;-4692.441345069071;0.00473001206319168;3.389004632481374e-06;83.33333333333333;-83.3333299443287
0.4120000000000003;-1235129299.0;-1216359200.0;-444.0;-4692.413653034933;-4692.436615057008;0.0038700135564795346;2.1295818442013115e-06;83.33333333333333;-83.33333120375148
0.4160000000000003;-1253898955.0;-1235128930.0;-369.0;-4692.413653031699;-4692.432745043451;0.0032250085178020527;8.085407898761332e-07;83.33333333333333;-83.33333252479254
0.4200000000000003;-1272668610.0;-1253898648.0;-307.0;-4692.413653031699;-4692.429520034933;0.0026660032344807405;0.0;83.33333333333333;-83.33333333333333
0.4240000000000003;-1291438266.0;-1272668355.0;-255.0;-4692.413653033192;-4692.426854031699;0.0022359999993568636;-3.731202014023438e-07;0.0;-3.731202014023438e-07
0.4280000000000003;-1310207921.0;-1291438053.0;-213.0;-4692.413653034436;-4692.4246180316995;0.00180599850773433;-3.1104718800634146e-07;0.0;-3.1104718800634146e-07
0.43200000000000033;-1328977577.0;-1310207744.0;-177.0;-4692.413653035306;-4692.422812033192;0.0015479987559956498;-2.1759660739917308e-07;83.33333333333333;-83.33333355092994
0.43600000000000033;-1347747232.0;-1328977429.0;-148.0;-4692.413653035616;-4692.421264034436;0.0012469991297621164;-7.753442332614213e-08;83.33333333333333;-83.33333341086775
0.44000000000000034;-1366516888.0;-1347747109.0;-123.0;-4692.413653035679;-4692.420017035306;0.0010749996899903635;-1.5688783605583012e-08;83.33333333333333;-83.33333334902211
0.44400000000000034;-1385286543.0;-1366516784.0;-104.0;-4692.413653035306;-4692.418942035616;0.0008169999373421888;9.322320693172514e-08;0.0;9.322320693172514e-08
0.44800000000000034;-1404056199.0;-1385286456.0;-87.0;-4692.413653035306;-4692.418125035679;0.0007310003720704117;0.0;0.0;0.0
0.45200000000000035;-1422825854.0;-1404056125.0;-74.0;-4692.413653035182;-4692.417394035307;0.0005590000000665896;3.115019353572279e-08;0.0;3.115019353572279e-08
0.45600000000000035;-1441595510.0;-1422825792.0;-62.0;-4692.413653035182;-4692.416835035307;0.0005160001246622414;0.0;0.0;0.0
0.46000000000000035;-1460365165.0;-1441595457.0;-53.0;-4692.413653035182;-4692.416319035182;0.00038700000004610047;0.0;0.0;0.0
0.46400000000000036;-1479134821.0;-1460365120.0;-45.0;-4692.413653035182;-4692.415932035182;0.0003440000000409782;0.0;0.0;0.0
0.46800000000000036;-1497904476.0;-1479134782.0;-39.0;-4692.413653035182;-4692.415588035182;0.00025800000003073364;0.0;0.0;0.0
0.47200000000000036;-1516674132.0;-1497904443.0;-33.0;-4692.413653035243;-4692.415330035182;0.00025800000003073364;-1.546140993013978e-08;0.0;-1.546140993013978e-08
0.47600000000000037;-1535443787.0;-1516674103.0;-29.0;-4692.413653035243;-4692.415072035182;0.00017199993817484938;0.0;0.0;0.0
0.48000000000000037;-1554213443.0;-1535443762.0;-25.0;-4692.413653035306;-4692.414900035244;0.0001720000000204891;-1.5688783605583012e-08;0.0;-1.5688783605583012e-08
0.4840000000000004;-1572983098.0;-1554213420.0;-23.0;-4692.413653035057;-4692.414728035244;8.599993725511013e-05;6.230038707144558e-08;0.0;6.230038707144558e-08
0.4880000000000004;-1591752754.0;-1572983078.0;-20.0;-4692.413653035182;-4692.414642035306;0.0001290002492169151;-3.115019353572279e-08;0.0;-3.115019353572279e-08
0.4920000000000004;-1610522410.0;-1591752736.0;-18.0;-4692.413653035306;-4692.414513035057;8.59998754094704e-05;-3.115019353572279e-08;0.0;-3.115019353572279e-08
0.4960000000000004;-1629292065.0;-1610522393.0;-17.0;-4692.413653035057;-4692.414427035182;4.299987540434813e-05;6.230038707144558e-08;0.0;6.230038707144558e-08
0.5000000000000003;-1648061721.0;-1629292050.0;-15.0;-4692.413653035182;-4692.414384035306;8.600024921179283e-05;-3.115019353572279e-08;0.0;-3.115019353572279e-08
0.5040000000000003;-1666831376.0;-1648061707.0;-14.0;-4692.413653035182;-4692.414298035057;4.299987540434813e-05;0.0;0.0;0.0
0.5080000000000003;-1685601032.0;-1666831364.0;-12.0;-4692.413653035182;-4692.414255035182;8.600000001024455e-05;0.0;0.0;0.0
0.5120000000000003;-1704370687.0;-1685601020.0;-12.0;-4692.413653035182;-4692.414169035182;0.0;0.0;0.0;0.0
