Zeit[sec];Sollposition[°];Istposition[°];Positionsschleppfehler[°];Sollgeschwindigkeit[°/s];Istgeschwindigkeit[°/s];Geschwindigkeitsdifferenz[°/s];Sollbeschleunigung[°/s*s];Istbeschleunigung[°/s*s];Beschleunigungsdifferenz[°/s*s]
0.0;-9979199999.0;-9979199995.0;-4.0;0.0;-0.00023999999999999998;0.0;0.0;0.0;0.0
0.004;-9979199999.0;-9979199995.0;-4.0;0.0;-0.00023999999999999998;0.0;0.0;0.0;0.0
0.008;-9979199999.0;-9979199995.0;-4.0;0.0;-0.00023999999999999998;0.0;0.0;0.0;0.0
0.012;-9979199999.0;-9979199995.0;-4.0;0.0;-0.00023999999999999998;0.0;0.0;0.0;0.0
0.016;-9979199999.0;-9979199995.0;-4.0;0.0;-0.00023999999999999998;0.0;0.0;0.0;0.0
0.02;-9979199999.0;-9979199995.0;-4.0;0.0;-0.00023999999999999998;0.0;0.0;0.0;0.0
0.024;-9979199999.0;-9979199995.0;-4.0;0.0;-0.00023999999999999998;0.0;0.0;0.0;0.0
0.028;-9979199999.0;-9979199995.0;-4.0;0.0;-0.00023999999999999998;0.0;0.0;0.0;0.0
0.032;-9979199999.0;-9979199995.0;-4.0;0.0;-0.00023999999999999998;0.0;0.0;0.0;0.0
0.036000000000000004;-9979199999.0;-9979199995.0;-4.0;0.0;-0.00023999999999999998;0.0;0.0;0.0;0.0
0.04000000000000001;-9979199999.0;-9979199995.0;-4.0;0.0;-0.00023999999999999998;0.0;0.0;0.0;0.0
0.04400000000000001;-9979199999.0;-9979199995.0;-4.0;0.0;-0.00023999999999999998;0.0;0.0;0.0;0.0
0.048000000000000015;-9979199999.0;-9979199995.0;-4.0;0.0;-0.00023999999999999998;0.0;0.0;0.0;0.0
0.05200000000000002;-9979199999.0;-9979199995.0;-4.0;8.656197209923802e-10;-0.00023999999999999998;0.0;2.1640493024809505e-07;0.0;2.1640493024809505e-07
0.05600000000000002;-9979199999.0;-9979199995.0;-4.0;5.770798139949201e-10;-0.00023999999999999998;8.656197210030973e-10;-7.213497674936503e-08;0.0;-7.213497674936503e-08
0.060000000000000026;-9979304212.0;-9979199995.0;-4.0;-26.053016654544546;-0.00023999913438027898;-2.885399070010324e-10;-6513.254163780406;0.0;-6513.254163780406
0.06400000000000003;-9979399588.0;-9979199995.0;-104217.0;-23.843995500229937;-0.00023999942292018598;-32.30579665512162;552.2552885786522;0.0;552.2552885786522
0.06800000000000003;-9979518846.0;-9979329219.0;-70369.0;-29.814676264059848;-32.30603665454454;4.239901154314605;-1492.6701909574779;-83.33333333333333;-1409.3368576241444
0.07200000000000004;-9979647318.0;-9979441483.0;-77363.0;-32.1178401890628;-28.066135500229937;-6.390320763829909;-575.7909812507371;-83.33333333333333;-492.4576479174038
0.07600000000000004;-9979779026.0;-9979579308.0;-68010.0;-32.92721061012758;-34.456456264059845;-1.7419839250029483;-202.34260526619607;-166.66666666666666;-35.67593859952942
0.08000000000000004;-9979914761.0;-9979724101.0;-54925.0;-33.933616238242294;-36.198440189062794;-0.024270421064784387;-251.6014070286783;-250.0;-1.601407028678281
0.08400000000000005;-9980051584.0;-9979868991.0;-45770.0;-34.20584957265879;-36.22271061012758;-0.4571056281147179;-68.0583336041245;-333.3333333333333;265.27499972920884
0.08800000000000005;-9980179408.0;-9980015710.0;-35874.0;-31.956019840444636;-36.679816238242296;0.3215266655835052;562.457433053539;-333.3333333333333;895.7907663868723
0.09200000000000005;-9980289511.0;-9980161143.0;-18265.0;-27.525531639636853;-36.35828957265879;3.306369732214158;1107.6220502019457;-250.0;1357.6220502019457
0.09600000000000006;-9980373521.0;-9980293350.0;3839.0;-21.00261130745951;-33.05191984044463;5.756728200807778;1630.7300830443357;-250.0;1880.7300830443357
0.10000000000000006;-9980416306.0;-9980402530.0;29009.0;-10.696199502399757;-27.295191639636855;8.033120332177344;2576.6029512649384;-250.0;2826.6029512649384
0.10400000000000006;-9980408130.0;-9980479578.0;63272.0;2.0439897146095856;-19.26207130745951;12.362191805059753;3185.047304252336;-166.66666666666666;3351.7139709190023
0.10800000000000007;-9980352977.0;-9980507177.0;99047.0;13.788220149368815;-6.899879502399758;14.886689217009343;2936.0576086898072;-166.66666666666666;3102.724275356474
0.11200000000000007;-9980260733.0;-9980475230.0;122253.0;23.06092234112073;7.986809714609585;13.136590434759228;2318.1755479379785;0.0;2318.1755479379785
0.11600000000000008;-9980142472.0;-9980390737.0;130004.0;29.565333188840174;21.123400149368813;9.737762191751916;1626.1027119298612;0.0;1626.1027119298612
0.12000000000000008;-9980009182.0;-9980267293.0;124821.0;33.3225152542567;30.86116234112073;6.193430847719444;939.2955163541315;166.66666666666666;772.6288496874648
0.12400000000000008;-9979869580.0;-9980119075.0;109893.0;34.90046001832403;37.05459318884017;2.8615020654165306;394.4861910168331;166.66666666666666;227.8195243501665
0.12800000000000009;-9979728780.0;-9979959411.0;89831.0;35.199947715128985;39.9160952542567;0.3742247640673284;74.87192420123812;333.3333333333333;-258.4614091320952
0.1320000000000001;-9979593216.0;-9979798250.0;69470.0;33.89103418760312;40.29032001832403;-0.9221723031950475;-327.22838188146676;333.3333333333333;-660.5617152148001
0.1360000000000001;-9979474850.0;-9979640778.0;47562.0;29.591606663277275;39.368147715128984;-2.623393527525863;-1074.8568810814606;333.3333333333333;-1408.1902144147941
0.1400000000000001;-9979382654.0;-9979493799.0;18949.0;23.04896661245705;36.74475418760312;-6.016207524325846;-1635.6600127050563;250.0;-1885.6600127050563
0.1440000000000001;-9979317643.0;-9979370885.0;-11769.0;16.252729002421592;30.728546663277275;-8.385720050820225;-1699.0594025088647;250.0;-1949.0594025088647
0.1480000000000001;-9979277781.0;-9979281514.0;-36129.0;9.965501212446476;22.34282661245705;-8.257837610035457;-1571.806947493779;250.0;-1821.806947493779
0.1520000000000001;-9979258893.0;-9979225175.0;-52606.0;4.721980814002239;14.084989002421592;-7.275847789975115;-1310.8800996110592;166.66666666666666;-1477.546766277726
0.1560000000000001;-9979254174.0;-9979197939.0;-60954.0;1.1796994247919212;6.809141212446477;-5.744400398444237;-885.5703473025795;83.33333333333333;-968.9036806359128
0.16000000000000011;-9979256577.0;-9979193681.0;-60493.0;-0.6006072552912861;1.0647408140022394;-3.514621389210318;-445.0766700208018;0.0;-445.0766700208018
0.16400000000000012;-9979260910.0;-9979203480.0;-53097.0;-1.0832639232160715;-2.449880575208079;-1.3365466800832069;-120.66416698119633;0.0;-120.66416698119633
0.16800000000000012;-9979264441.0;-9979218625.0;-42285.0;-0.8828105171933814;-3.7864272552912857;0.16606333207521473;50.113351505672505;0.0;50.113351505672505
0.17200000000000013;-9979266385.0;-9979233106.0;-31335.0;-0.48593288679675045;-3.620363923216071;0.8574534060226897;99.21940759915775;0.0;99.21940759915775
0.17600000000000013;-9979267018.0;-9979244157.0;-22228.0;-0.15825252381415067;-2.762910517193381;0.9432976303966307;81.92009074564994;0.0;81.92009074564994
0.18000000000000013;-9979266937.0;-9979251435.0;-15583.0;0.020244119726050273;-1.8196128867967505;0.7263803629825998;44.62416088505024;0.0;44.62416088505024
0.18400000000000014;-9979266642.0;-9979255807.0;-11130.0;0.07375262235806349;-1.0932325238141507;0.445676643540201;13.377125658003303;0.0;13.377125658003303
0.18800000000000014;-9979266406.0;-9979258397.0;-8245.0;0.05901839346623838;-0.6475558802739497;0.22660850263201326;-3.6835572229562774;0.0;-3.6835572229562774
0.19200000000000014;-9979266309.0;-9979260080.0;-6326.0;0.02425203858051291;-0.42094737764193646;0.10040577110817489;-8.691588721431367;0.0;-8.691588721431367
0.19600000000000015;-9979266325.0;-9979261362.0;-4947.0;-0.0040984672939169495;-0.32054160653376157;0.04797364511427449;-7.087626468607464;0.0;-7.087626468607464
0.20000000000000015;-9979266398.0;-9979262452.0;-3873.0;-0.018319632412593406;-0.2725679614194871;0.036089494125570165;-3.555291279669114;83.33333333333333;-86.88862461300245
0.20400000000000015;-9979266482.0;-9979263397.0;-3001.0;-0.021036982378253802;-0.23647846729391692;0.03809883488132351;-0.679337491415099;166.66666666666666;-167.34600415808177
0.20800000000000016;-9979266554.0;-9979264190.0;-2292.0;-0.017897133814213678;-0.1983796324125934;0.03982265003433963;0.784962141010031;250.0;-249.21503785898997
0.21200000000000016;-9979266608.0;-9979264824.0;-1730.0;-0.013502011139875059;-0.15855698237825377;0.03685984856404011;1.0987806685846548;250.0;-248.90121933141535
0.21600000000000016;-9979266649.0;-9979265310.0;-1298.0;-0.010211707769429713;-0.12169713381421367;0.030315122674338613;0.8225758426113364;250.0;-249.17742415738866
0.22000000000000017;-9979266683.0;-9979265675.0;-974.0;-0.008552614268710783;-0.09138201113987506;0.02273030337044535;0.41477337517973256;250.0;-249.58522662482028
0.22400000000000017;-9979266715.0;-9979265949.0;-734.0;-0.008103611837173804;-0.0686517077694297;0.016059093500718928;0.11225060788424461;333.3333333333333;-333.2210827254491
0.22800000000000017;-9979266748.0;-9979266159.0;-556.0;-0.008224837551000182;-0.05259261426871078;0.011129002431536979;-0.03030642845659433;250.0;-250.03030642845658
0.23200000000000018;-9979266782.0;-9979266324.0;-424.0;-0.008437151562446865;-0.0414636118371738;0.007798774286173621;-0.05307850286167094;250.0;-250.05307850286167
0.23600000000000018;-9979266816.0;-9979266458.0;-324.0;-0.008512491351943251;-0.03366483755100018;0.005787685988553316;-0.018834947374096397;83.33333333333333;-83.35216828070743
0.24000000000000019;-9979266850.0;-9979266569.0;-247.0;-0.0084124903451357;-0.027877151562446863;0.0045446602105036135;0.025000251701887913;83.33333333333333;-83.30833308163145
0.2440000000000002;-9979266883.0;-9979266662.0;-188.0;-0.00818994240026763;-0.02333249135194325;0.0036400010068075514;0.055636986217017306;-83.33333333333333;83.38897031955035
0.2480000000000002;-9979266914.0;-9979266740.0;-143.0;-0.007913700641186214;-0.019692490345135698;0.0029225479448680702;0.06906043977035395;-166.66666666666666;166.73572710643703
0.25200000000000017;-9979266945.0;-9979266807.0;-107.0;-0.007632251602403217;-0.016769942400267628;0.0024362417590814145;0.0703622596957493;-250.0;250.07036225969574
0.25600000000000017;-9979266974.0;-9979266864.0;-81.0;-0.007367023411571896;-0.014333700641186213;0.0018414490387829961;0.06630704770783034;-250.0;250.06630704770782
0.2600000000000002;-9979267003.0;-9979266913.0;-61.0;-0.007120235229116968;-0.012492251602403217;0.001465228190831322;0.061697045613731856;-250.0;250.06169704561373
0.2640000000000002;-9979267030.0;-9979266957.0;-46.0;-0.006885539177084491;-0.011027023411571895;0.0011467881824549272;0.05867401300811942;-333.3333333333333;333.3920073463414
0.2680000000000002;-9979267057.0;-9979266996.0;-34.0;-0.006655625674010495;-0.009880235229116968;0.000954696052032477;0.057478375768498915;-333.3333333333333;333.3908117091018
0.2720000000000002;-9979267083.0;-9979267031.0;-26.0;-0.00642565071193631;-0.00892553917708449;0.0007099135030739969;0.05749374051854626;-333.3333333333333;333.3908270738519
0.2760000000000002;-9979267107.0;-9979267063.0;-20.0;-0.006193652796574165;-0.008215625674010494;0.0005899749620741843;0.05799947884053622;-166.66666666666666;166.7246661455072
0.2800000000000002;-9979267131.0;-9979267093.0;-14.0;-0.0059595921094168945;-0.00762565071193631;0.0005919979153621449;0.058515171789317665;-83.33333333333333;83.39184850512265
0.2840000000000002;-9979267154.0;-9979267121.0;-10.0;-0.005724217988602974;-0.007033652796574165;0.00047406068715727043;0.05884353020348013;0.0;0.05884353020348013
0.2880000000000002;-9979267176.0;-9979267147.0;-7.0;-0.005488305163782686;-0.006559592109416894;0.0004153741208139201;0.058978206205072006;0.0;0.058978206205072006
0.2920000000000002;-9979267197.0;-9979267171.0;-5.0;-0.005252338670539699;-0.006144217988602974;0.00035591282482028835;0.058991623310746755;0.0;0.058991623310746755
0.2960000000000002;-9979267217.0;-9979267194.0;-3.0;-0.005016498269236069;-0.005788305163782686;0.00035596649324298735;0.058960100325907566;0.0;0.058960100325907566
0.3000000000000002;-9979267236.0;-9979267215.0;-2.0;-0.004780773572435145;-0.0054323386705396985;0.00029584040130362955;0.058931174200230974;0.0;0.058931174200230974
0.3040000000000002;-9979267254.0;-9979267235.0;-1.0;-0.00454508263480334;-0.005136498269236069;0.00029572469680092407;0.05892273440795122;0.0;0.05892273440795122
0.3080000000000002;-9979267272.0;-9979267254.0;0.0;-0.00430934697348595;-0.004840773572435145;0.000295690937631805;0.05893391532934742;0.0;0.05893391532934742
0.3120000000000002;-9979267288.0;-9979267272.0;0.0;-0.004073523018957018;-0.00454508263480334;0.00023573566131738968;0.05895598863223301;0.0;0.05895598863223301
0.3160000000000002;-9979267303.0;-9979267289.0;1.0;-0.003837600383779894;-0.00430934697348595;0.0002958239545289322;0.05898065879428099;0.0;0.05898065879428099
0.32000000000000023;-9979267318.0;-9979267305.0;2.0;-0.003601583107513276;-0.004013523018957018;0.0002959226351771237;0.059004319066654584;0.0;0.059004319066654584
0.32400000000000023;-9979267331.0;-9979267319.0;1.0;-0.0033654853286126034;-0.0037176003837798943;0.00017601727626661862;0.059024444725168115;0.0;0.059024444725168115
0.32800000000000024;-9979267344.0;-9979267333.0;2.0;-0.0031293188772140664;-0.0035415831075132757;0.0002960977789006722;0.05904161284963423;0.0;0.05904161284963423
0.33200000000000024;-9979267355.0;-9979267345.0;1.0;-0.0028930912553552456;-0.0032454853286126035;0.0001761664513985372;0.059056905464705205;0.0;0.059056905464705205
0.33600000000000024;-9979267366.0;-9979267357.0;2.0;-0.002656806791134747;-0.0030693188772140663;0.00029622762185882055;0.05907111605512466;0.0;0.05907111605512466
0.34000000000000025;-9979267376.0;-9979267368.0;2.0;-0.002420468369951639;-0.0027730912553552457;0.00023628446422049865;0.05908460529577698;0.0;0.05908460529577698
0.34400000000000025;-9979267384.0;-9979267378.0;2.0;-0.0021840791657449002;-0.002536806791134747;0.00023633842118310792;0.0590973010516847;0.0;0.0590973010516847
0.34800000000000025;-9979267392.0;-9979267387.0;3.0;-0.0019476409097539714;-0.002300468369951639;0.00029638920420673896;0.059109563997732206;0.0;0.059109563997732206
0.35200000000000026;-9979267399.0;-9979267395.0;3.0;-0.001711155621758202;-0.0020040791657449;0.00023643825599092881;0.05912132199894235;0.0;0.05912132199894235
0.35600000000000026;-9979267405.0;-9979267402.0;3.0;-0.0014746290725557323;-0.0017676409097539714;0.00023648528799576941;0.059131637300617414;0.0;0.059131637300617414
0.36000000000000026;-9979267410.0;-9979267408.0;3.0;-0.0012380615506864686;-0.001531155621758202;0.00023652654920246967;0.05914188046731594;0.0;0.05914188046731594
0.36400000000000027;-9979267414.0;-9979267413.0;3.0;-0.0010014588269485515;-0.0012946290725557323;0.00023656752186926376;0.05915068093447927;0.0;0.05915068093447927
0.36800000000000027;-9979267417.0;-9979267417.0;3.0;-0.0007648232096612364;-0.0010580615506864685;0.00023660272373791707;0.059158904321828784;0.0;0.059158904321828784
0.3720000000000003;-9979267419.0;-9979267420.0;3.0;-0.0005281575842235938;-0.0008214588269485515;0.00023663561728731503;0.059166406359410645;0.0;0.059166406359410645
0.3760000000000003;-9979267420.0;-9979267422.0;3.0;-0.0002914665672741353;-0.0005848232096612364;0.00023666562543764265;0.059172754237364615;0.0;0.059172754237364615
0.3800000000000003;-9979267420.0;-9979267423.0;3.0;-5.475189005230303e-05;-0.0003481575842235938;0.00023669101694945847;0.05917866930545807;0.0;0.05917866930545807
0.3840000000000003;-9979267420.0;-9979267423.0;3.0;0.00018198096518367004;-0.00011146656727413533;0.00023671467722183228;0.05918321380899327;0.0;0.05918321380899327
0.3880000000000003;-9979267418.0;-9979267423.0;3.0;0.00041873026719434203;0.00012524810994769695;0.00023673285523597305;0.059187325502667996;0.0;0.059187325502667996
0.3920000000000003;-9979267415.0;-9979267422.0;4.0;0.0006554925535008289;0.00036198096518367;0.000296749302010672;0.059190571576621706;0.0;0.059190571576621706
0.3960000000000003;-9979267412.0;-9979267420.0;5.0;0.0008922637845444326;0.000658730267194342;0.00029676228630648677;0.05919280776090093;0.0;0.05919280776090093
0.4000000000000003;-9979267407.0;-9979267417.0;5.0;0.0011290419405458043;0.0009554925535008288;0.00023677123104360372;0.05919453900034294;0.0;0.05919453900034294
0.4040000000000003;-9979267402.0;-9979267413.0;6.0;0.001365822404866432;0.0011922637845444325;0.0002967781560013719;0.05919511608015694;0.0;0.05919511608015694
0.4080000000000003;-9979267395.0;-9979267408.0;6.0;0.0016026025806471526;0.0014890419405458044;0.00023678046432062776;0.05919504394518013;0.0;0.05919504394518013
0.4120000000000003;-9979267388.0;-9979267402.0;7.0;0.0018393787168691752;0.0017258224048664322;0.00029678017578072024;0.059194034055505634;0.0;0.059194034055505634
0.4160000000000003;-9979267380.0;-9979267394.0;6.0;0.002076147639593523;0.0020226025806471524;0.00017677613622202283;0.059192230681086984;0.0;0.059192230681086984
0.4200000000000003;-9979267370.0;-9979267386.0;6.0;0.002312905886341312;0.0021993787168691752;0.00023676892272434793;0.059189561686947244;0.0;0.059189561686947244
0.4240000000000003;-9979267360.0;-9979267377.0;7.0;0.0025496502831735654;0.002436147639593523;0.0002967582467477887;0.059186099208063336;0.0;0.059186099208063336
0.4280000000000003;-9979267349.0;-9979267367.0;7.0;0.002786377944691212;0.002732905886341312;0.00023674439683225336;0.05918191537941165;0.0;0.05918191537941165
0.43200000000000033;-9979267337.0;-9979267356.0;7.0;0.0030230851198754624;0.0029696502831735652;0.0002367276615176466;0.0591767937960626;0.0;0.0591767937960626
0.43600000000000033;-9979267324.0;-9979267344.0;7.0;0.003259768057707525;0.003206377944691212;0.00023670717518425042;0.05917073445801566;0.0;0.05917073445801566
0.44000000000000034;-9979267310.0;-9979267331.0;7.0;0.003496424161328237;0.0034430851198754622;0.00023668293783206265;0.05916402590517796;0.0;0.05916402590517796
0.44400000000000034;-9979267295.0;-9979267317.0;7.0;0.0037330496797188073;0.003679768057707525;0.0002366561036207123;0.05915637959764258;0.0;0.05915637959764258
0.44800000000000034;-9979267279.0;-9979267302.0;7.0;0.003969641438940258;0.003916424161328237;0.0002366255183905699;0.05914793980536261;0.0;0.05914793980536261
0.45200000000000035;-9979267262.0;-9979267286.0;7.0;0.004206195976513707;0.004153049679718807;0.00023659175922145087;0.05913863439336231;0.0;0.05913863439336231
0.45600000000000035;-9979267245.0;-9979267269.0;7.0;0.004442709541420362;0.004389641438940258;0.00023655453757344923;0.05912839122666379;0.0;0.05912839122666379
0.46000000000000035;-9979267226.0;-9979267251.0;6.0;0.004679180113880874;0.004626195976513707;0.00017651356490665498;0.059117643115128016;0.0;0.059117643115128016
0.46400000000000036;-9979267206.0;-9979267232.0;6.0;0.004915603365796639;0.004802709541420362;0.00023647057246051206;0.059105812978941165;0.0;0.059105812978941165
0.46800000000000036;-9979267186.0;-9979267212.0;6.0;0.005151976123228679;0.005039180113880874;0.00023642325191576465;0.059093189358010036;0.0;0.059093189358010036
0.47200000000000036;-9979267164.0;-9979267191.0;5.0;0.005388294923698111;0.005275603365796639;0.00017637275743204;0.059079700117358046;0.0;0.059079700117358046
0.47600000000000037;-9979267142.0;-9979267170.0;6.0;0.005624556593265957;0.005451976123228679;0.00029631880046943233;0.05906541739196156;0.0;0.05906541739196156
0.48000000000000037;-9979267118.0;-9979267148.0;6.0;0.005860757669453334;0.005748294923698111;0.00023626166956784624;0.05905026904684421;0.0;0.05905026904684421
0.4840000000000004;-9979267094.0;-9979267125.0;7.0;0.006096895555401079;0.0059845565932659574;0.000296201076187377;0.059034471486936205;0.0;0.059034471486936205
0.4880000000000004;-9979267068.0;-9979267100.0;6.0;0.006332965634470678;0.0062807576694533344;0.00017613788594774468;0.05901751976739966;0.0;0.05901751976739966
0.4920000000000004;-9979267042.0;-9979267075.0;7.0;0.006568965598342877;0.006456895555401079;0.0002960700790695988;0.05899999096804992;0.0;0.05899999096804992
0.4960000000000004;-9979267015.0;-9979267048.0;6.0;0.006804891407458978;0.006752965634470678;0.00017599996387219954;0.058981452279025265;0.0;0.058981452279025265
0.5000000000000003;-9979266987.0;-9979267021.0;6.0;0.007040741042039633;0.0069289655983428775;0.00023592580911610105;0.058962408645163576;0.0;0.058962408645163576
