Zeit[sec];Sollposition[°];Istposition[°];Positionsschleppfehler[°];Sollgeschwindigkeit[°/s];Istgeschwindigkeit[°/s];Geschwindigkeitsdifferenz[°/s];Sollbeschleunigung[°/s*s];Istbeschleunigung[°/s*s];Beschleunigungsdifferenz[°/s*s]
0.0;0.0;2.0;-2.0;-0.0;-0.000192;0.0;0.0;0.0;0.0
0.004;0.0;2.0;-2.0;-0.0;-0.000192;0.0;0.0;0.0;0.0
0.008;0.0;2.0;-2.0;-0.0;-0.000192;0.0;0.0;0.0;0.0
0.012;0.0;2.0;-2.0;-0.0;-0.000192;0.0;0.0;0.0;0.0
0.016;0.0;2.0;-2.0;-0.0;-0.000192;0.0;0.0;0.0;0.0
0.02;0.0;2.0;-2.0;-0.0;-0.000192;0.0;0.0;0.0;0.0
0.024;0.0;2.0;-2.0;-0.0;-0.000192;0.0;0.0;0.0;0.0
0.028;0.0;2.0;-2.0;-0.0;-0.000192;0.0;0.0;0.0;0.0
0.032;0.0;2.0;-2.0;-0.0;-0.000192;0.0;0.0;0.0;0.0
0.036000000000000004;0.0;2.0;-2.0;-0.0;-0.000192;0.0;0.0;0.0;0.0
0.04000000000000001;0.0;2.0;-2.0;-0.0;-0.000192;0.0;0.0;0.0;0.0
0.04400000000000001;0.0;2.0;-2.0;-0.0;-0.000192;0.0;0.0;0.0;0.0
0.048000000000000015;0.0;2.0;-2.0;-0.0;-0.000192;0.0;0.0;0.0;0.0
0.05200000000000002;0.0;2.0;-2.0;-0.0;-0.000192;0.0;0.0;0.0;0.0
0.05600000000000002;0.0;2.0;-2.0;-0.0;-0.000192;0.0;0.0;0.0;0.0
0.060000000000000026;0.0;2.0;-2.0;-0.0;-0.000192;0.0;0.0;0.0;0.0
0.06400000000000003;0.0;2.0;-2.0;-0.0;-0.000192;0.0;0.0;0.0;0.0
0.06800000000000003;0.0;2.0;-2.0;-0.0;-0.000192;0.0;0.0;0.0;0.0
0.07200000000000004;0.0;2.0;-2.0;-0.0;-0.000192;0.0;0.0;0.0;0.0
0.07600000000000004;-245.0;2.0;-2.0;-0.06126188492552327;-0.000192;0.0;-15.315471231380817;0.0;-15.315471231380817
0.08000000000000004;-2687.0;2.0;-247.0;-0.6105159049159169;-0.000192;-0.08478188492552327;-137.31350499759841;0.0;-137.31350499759841
0.08400000000000005;-62288.0;-337.0;-2350.0;-14.900408672788497;-0.08497388492552327;-0.7511420199903937;-3572.4731919681453;0.0;-3572.4731919681453
0.08800000000000005;-191147.0;-3681.0;-58607.0;-32.21479173547988;-0.8361159049159169;-19.69056476787258;-4328.595765672845;0.0;-4328.595765672845
0.09200000000000005;-459137.0;-85787.0;-105360.0;-66.99750706544532;-20.526680672788498;-21.802671062691378;-8695.67883249136;0.0;-8695.67883249136
0.09600000000000006;-912090.0;-255104.0;-204033.0;-113.23801964722017;-42.329351735479875;-44.25532332996545;-11560.128145443712;-83.33333333333333;-11476.79481211038
0.10000000000000006;-1546610.0;-601442.0;-310648.0;-158.6300366670603;-86.58467506544532;-56.475552581774835;-11348.004254960031;-333.3333333333333;-11014.670921626697
0.10400000000000006;-2372665.0;-1173682.0;-372928.0;-206.5138818596107;-143.06022764722016;-51.37089701984013;-11970.961298137603;-750.0;-11220.961298137603
0.10800000000000007;-3456501.0;-1951406.0;-421259.0;-270.95900661334224;-194.4311246670603;-52.52362119255042;-16111.281188432884;-1166.6666666666667;-14944.614521766216
0.11200000000000007;-4886006.0;-2939224.0;-517277.0;-357.3761509756725;-246.9547458596107;-73.66285275373153;-21604.286090582562;-1500.0;-20104.286090582562
0.11600000000000008;-6737827.0;-4221694.0;-664312.0;-462.9552524472309;-320.61759861334224;-100.53250436233026;-26394.775367889608;-1916.6666666666667;-24478.10870122294
0.12000000000000008;-9071246.0;-5906294.0;-831533.0;-583.3546137073371;-421.1501029756725;-121.63231747155845;-30099.84031502654;-2583.3333333333335;-27516.50698169321
0.12400000000000008;-11933628.0;-8077423.0;-993823.0;-715.5955256389137;-542.782420447231;-135.97920126010615;-33060.22798289416;-3416.6666666666665;-29643.561316227497
0.12800000000000009;-15358812.0;-10792469.0;-1141159.0;-856.2960628797176;-678.7616217073371;-146.3851679315767;-35175.13431020097;-4333.333333333333;-30841.800976867642
0.1320000000000001;-19366804.0;-14093056.0;-1265756.0;-1001.9978955671066;-825.1467896389138;-152.6618492408038;-36425.458171847255;-5333.333333333333;-31092.12483851392
0.1360000000000001;-23964715.0;-18004290.0;-1362514.0;-1149.4776291557112;-977.8086388797176;-154.99060068738913;-36869.93339715113;-6416.666666666667;-30453.26673048446
0.1400000000000001;-29142506.0;-22535486.0;-1429229.0;-1294.4478321676572;-1132.7992395671067;-153.88437358860438;-36242.55075298651;-7666.666666666667;-28575.88408631985
0.1440000000000001;-34872679.0;-27682220.0;-1460286.0;-1432.5431556089343;-1286.683613155711;-147.951675011946;-34523.83086031926;-8833.333333333334;-25690.49752698593
0.1480000000000001;-41115623.0;-33420761.0;-1451918.0;-1560.7357325833445;-1434.635288167657;-137.2919954412771;-32048.144243602565;-10083.333333333334;-21964.810910269232
0.1520000000000001;-47822539.0;-39708470.0;-1407153.0;-1676.72898136147;-1571.9272836089342;-123.89513697441043;-28998.312194531365;-11166.666666666666;-17831.6455278647
0.1560000000000001;-54936402.0;-46491759.0;-1330780.0;-1778.465681396528;-1695.8224205833446;-108.66144077812532;-25434.175008764498;-12250.0;-13184.175008764498
0.16000000000000011;-62394632.0;-53709694.0;-1226708.0;-1864.5573242496878;-1804.48386136147;-91.74578803505801;-21522.910713289944;-13166.666666666666;-8356.24404662328
0.16400000000000012;-70132956.0;-61294612.0;-1100020.0;-1934.5809643826105;-1896.229649396528;-73.92959485315987;-17505.91003323069;-14000.0;-3505.910033230691
0.16800000000000012;-78087491.0;-69175248.0;-957708.0;-1988.6336140931558;-1970.1592442496878;-56.36168813292261;-13513.162427636304;-14750.0;1236.8375723636973
0.17200000000000013;-86198429.0;-77281331.0;-806160.0;-2027.7345078179392;-2026.5209323826105;-39.50404171054538;-9775.223431195855;-15333.333333333334;5558.109902137479
0.17600000000000013;-94417053.0;-85545430.0;-652999.0;-2054.6559523993533;-2066.024974093156;-24.39743772478323;-6730.361145353527;-15833.333333333334;9102.972187979807
0.18000000000000013;-102707108.0;-93907119.0;-509934.0;-2072.513600341255;-2090.422411817939;-13.187204581414335;-4464.411985475408;-16083.333333333334;11618.921347857926
0.18400000000000014;-111040754.0;-102321557.0;-385551.0;-2083.411372276851;-2103.6096163993534;-5.916879941901698;-2724.4429838990527;-16333.333333333334;13608.890349434281
0.18800000000000014;-119397096.0;-110759662.0;-281092.0;-2089.085485866077;-2109.526496341255;-0.869707935596125;-1418.5283973064315;-16416.666666666668;14998.138269360235
0.19200000000000014;-127762425.0;-119201246.0;-195850.0;-2091.332100114758;-2110.396204276851;2.5091184107745903;-561.6535621702496;-16500.0;15938.34643782975
0.19600000000000015;-136129217.0;-127632794.0;-129631.0;-2091.698016853165;-2107.8870858660766;4.110409751318912;-91.47918460178062;-16500.0;16408.52081539822
0.20000000000000015;-144494350.0;-136047900.0;-81317.0;-2091.2830938781112;-2103.7766761147577;4.272227261592889;103.73074376343538;-16416.666666666668;16520.3974104301
0.20400000000000015;-152857288.0;-144445917.0;-48433.0;-2090.734432524485;-2099.504448853165;3.571786975053783;137.1653384065894;-16416.666666666668;16553.83200507326
0.20800000000000016;-161218624.0;-152829647.0;-27641.0;-2090.333705930864;-2095.932661878111;2.5446933536263714;100.18164840516874;-16333.333333333334;16433.514981738503
0.21200000000000016;-169579151.0;-161203198.0;-15426.0;-2090.1318511051695;-2093.3879685244847;1.5733665936204488;50.463706423670374;-16416.666666666668;16467.13037309034
0.21600000000000016;-177939452.0;-169570456.0;-8695.0;-2090.075170878562;-2091.8146019308642;0.8480308256948774;14.170056651892082;-16333.333333333334;16347.503389985226
0.22000000000000017;-186299813.0;-177934322.0;-5130.0;-2090.0900869602283;-2090.9665711051694;0.39892022660751536;-3.7290204165856267;-16333.333333333334;16329.604312916748
0.22400000000000017;-194660305.0;-186296592.0;-3221.0;-2090.122846333347;-2090.567650878562;0.16834791833343843;-8.189843279637898;-16166.666666666666;16158.476823387027
0.22800000000000017;-203020895.0;-194658189.0;-2116.0;-2090.147383331509;-2090.3993029602284;0.07332062688146834;-6.134249540536985;-16000.0;15993.865750459463
0.23200000000000018;-211381527.0;-203019492.0;-1403.0;-2090.157892545099;-2090.325982333347;0.04391100183784147;-2.6273033975030557;-15583.333333333334;15580.70602993583
0.23600000000000018;-219742160.0;-211380620.0;-907.0;-2090.158273703383;-2090.282071331509;0.03710678641027698;-0.09528957104976143;-15250.0;15249.90471042895
0.24000000000000019;-228102778.0;-219741599.0;-561.0;-2090.154392316994;-2090.244964545099;0.03283484171561213;0.9703465973416314;-14750.0;14750.970346597342
0.2440000000000002;-236463380.0;-228102447.0;-331.0;-2090.1504032885377;-2090.212129703383;0.02596138638955381;0.9972571140224318;-14416.666666666666;14417.663923780688
0.2480000000000002;-244823973.0;-236463191.0;-189.0;-2090.148059908316;-2090.1861683169936;0.017621028455778287;0.5858450554114825;-13750.0;13750.585845055411
0.25200000000000017;-253184563.0;-244823865.0;-108.0;-2090.1474332663515;-2090.168547288538;0.010119380221567553;0.15666049114315683;-13000.0;13000.156660491142
0.25600000000000017;-261545155.0;-253184498.0;-65.0;-2090.1478824697333;-2090.1584279083163;0.004754641964609618;-0.11230084544422425;-12000.0;11999.887699154555
0.2600000000000002;-269905750.0;-261545112.0;-43.0;-2090.1487296348946;-2090.1536732663517;0.0016627966183477838;-0.21179129032589117;-11000.0;10999.788208709673
0.2640000000000002;-278266349.0;-269905720.0;-30.0;-2090.1495462507974;-2090.1520104697333;0.0004008348387287697;-0.20415397568740445;-9833.333333333334;9833.129179357646
0.2680000000000002;-286626950.0;-278266326.0;-23.0;-2090.150170250653;-2090.1516096348946;-0.00014461590262726531;-0.15599996390847082;-8666.666666666666;8666.510666702758
0.2720000000000002;-294987553.0;-286626933.0;-17.0;-2090.1506086066775;-2090.1517542507972;-4.799985572390142e-05;-0.10958900611512945;-7500.0;7499.890410993885
0.2760000000000002;-303348157.0;-294987540.0;-13.0;-2090.1509324797744;-2090.151802250653;-5.43560245205299e-05;-0.08096827423287323;-6333.333333333333;6333.2523650591
0.2800000000000002;-311708762.0;-303348147.0;-10.0;-2090.1512105109823;-2090.1518566066775;-3.587309674912831e-05;-0.06950780198167195;-5166.666666666667;5166.597158864685
0.2840000000000002;-320069369.0;-311708754.0;-8.0;-2090.1514834019613;-2090.1518924797742;-8.603120795669383e-05;-0.0682227447441619;-4083.3333333333335;4083.2651105885893
0.2880000000000002;-328429976.0;-320069361.0;-8.0;-2090.1517648261733;-2090.151978510982;-0.0002728909789766476;-0.07035605301553005;-3083.3333333333335;3083.262977280318
0.2920000000000002;-336790585.0;-328429970.0;-6.0;-2090.1520524042603;-2090.152251401961;-8.942421209212625e-05;-0.07189452173861355;-2250.0;2249.9281054782614
0.2960000000000002;-345151194.0;-336790579.0;-6.0;-2090.152338350671;-2090.1523408261733;-0.0002875780869544542;-0.07148660267830564;-1500.0;1499.9285133973217
0.3000000000000002;-353511805.0;-345151189.0;-5.0;-2090.152615806548;-2090.15262840426;-0.00018994641095559928;-0.06936396925993904;-1000.0;999.9306360307401
0.3040000000000002;-361872417.0;-353511800.0;-5.0;-2090.152880977949;-2090.152818350671;-0.00027745587703975616;-0.0662928501924398;-583.3333333333334;583.2670404831409
0.3080000000000002;-370233030.0;-361872412.0;-5.0;-2090.1531327743105;-2090.153095806548;-0.0002651714007697592;-0.0629490904202612;-250.0;249.93705090957974
0.3120000000000002;-378593644.0;-370233025.0;-5.0;-2090.1533716014865;-2090.153360977949;-0.0002517963616810448;-0.059706793990699225;-83.33333333333333;83.27362653934263
0.3160000000000002;-386954259.0;-378593639.0;-5.0;-2090.1535982949604;-2090.1536127743107;-0.0002388271759627969;-0.056673368476367614;83.33333333333333;-83.3900067018097
0.32000000000000023;-395314874.0;-386954254.0;-5.0;-2090.153813528622;-2090.1538516014866;-0.00022669347390547046;-0.05380841537316883;166.66666666666666;-166.72047508203983
0.32400000000000023;-403675491.0;-395314870.0;-4.0;-2090.154017644158;-2090.1540782949605;-0.00011923366128030466;-0.051028884058723634;166.66666666666666;-166.71769555072538
0.32800000000000024;-412036108.0;-403675486.0;-5.0;-2090.1542107143887;-2090.154197528622;-0.0003001155364472652;-0.04826755764497648;166.66666666666666;-166.71493422431163
0.33200000000000024;-420396726.0;-412036103.0;-5.0;-2090.1543926744557;-2090.1544976441583;-0.0001930702305799059;-0.045490016759686114;83.33333333333333;-83.37882335009301
0.33600000000000024;-428757345.0;-420396721.0;-5.0;-2090.154563427733;-2090.154690714389;-0.00018196006703874446;-0.04268831935405615;83.33333333333333;-83.37602165268738
0.34000000000000025;-437117964.0;-428757340.0;-5.0;-2090.1547229008834;-2090.154872674456;-0.0001707532774162246;-0.03986828755841998;0.0;-0.03986828755841998
0.34400000000000025;-445478584.0;-437117960.0;-4.0;-2090.1548710566403;-2090.1550434277333;-6.347315002130927e-05;-0.03703893924011936;0.0;-0.03703893924011936
0.34800000000000025;-453839204.0;-445478580.0;-4.0;-2090.155007884891;-2090.1551069008833;-0.00014815575696047745;-0.03420706264023465;0.0;-0.03420706264023465
0.35200000000000026;-462199825.0;-453839201.0;-3.0;-2090.155133388808;-2090.1552550566403;-4.0828250803315314e-05;-0.03137597923341673;0.0;-0.03137597923341673
0.35600000000000026;-470560447.0;-462199822.0;-3.0;-2090.155247574342;-2090.155295884891;-0.00012550391693366691;-0.02854638353255723;0.0;-0.02854638353255723
0.36000000000000026;-478921068.0;-470560443.0;-4.0;-2090.155350445027;-2090.155421388808;-0.00021018553388785222;-0.025717671292113664;0.0;-0.025717671292113664
0.36400000000000027;-487281691.0;-478921065.0;-3.0;-2090.155442001554;-2090.155631574342;-6.870685410831356e-06;-0.0228891317419766;0.0;-0.0228891317419766
0.36800000000000027;-495642313.0;-487281687.0;-4.0;-2090.155522242557;-2090.1556384450273;-0.0001875565267255297;-0.020060250676579017;0.0;-0.020060250676579017
0.3720000000000003;-504002936.0;-495642310.0;-3.0;-2090.1555911659784;-2090.155826001554;1.5758997051307233e-05;-0.01723085540561442;0.0;-0.01723085540561442
0.3760000000000003;-512363559.0;-504002933.0;-3.0;-2090.15564877053;-2090.155810242557;-6.892342162245768e-05;-0.01440113794615172;0.0;-0.01440113794615172
0.3800000000000003;-520724182.0;-512363556.0;-3.0;-2090.155695055758;-2090.1558791659786;-5.760455178460688e-05;-0.011571306913538137;0.0;-0.011571306913538137
0.3840000000000003;-529084805.0;-520724179.0;-3.0;-2090.155730022116;-2090.1559367705304;-4.628522765415255e-05;-0.008741589567762276;0.0;-0.008741589567762276
0.3880000000000003;-537445429.0;-529084802.0;-3.0;-2090.1557536710975;-2090.155983055758;-3.49663582710491e-05;-0.005912245342187816;0.0;-0.005912245342187816
0.3920000000000003;-545806052.0;-537445426.0;-3.0;-2090.1557660047424;-2090.1560180221163;-2.3648981368751265e-05;-0.0030834112294542138;0.0;-0.0030834112294542138
0.3960000000000003;-554166676.0;-545806050.0;-2.0;-2090.155767025988;-2090.1560416710977;8.36663552945538e-05;-0.00025531142000545515;0.0;-0.00025531142000545515
0.4000000000000003;-562527299.0;-554166673.0;-3.0;-2090.1557567379286;-2090.1559580047424;-9.702124589239247e-05;0.0025720148641994456;0.0;0.0025720148641994456
0.4040000000000003;-570887922.0;-562527297.0;-2.0;-2090.15573514449;-2090.1560550259883;0.00010628805966916843;0.005398359689934296;0.0;0.005398359689934296
0.4080000000000003;-579248546.0;-570887920.0;-2.0;-2090.1557022504144;-2090.1559487379286;2.1593438759737182e-05;0.008223518875638547;0.0;0.008223518875638547
0.4120000000000003;-587609169.0;-579248543.0;-3.0;-2090.155658060554;-2090.15592714449;-6.310592470981646e-05;0.011047465136471146;0.0;0.011047465136471146
0.4160000000000003;-595969792.0;-587609166.0;-3.0;-2090.155602580595;-2090.1559902504146;4.4189860545884585e-05;0.013869989743398037;0.0;0.013869989743398037
0.4200000000000003;-604330414.0;-595969789.0;-3.0;-2090.1555358171313;-2090.155946060554;5.547995897359215e-05;0.016690865891177964;0.0;0.016690865891177964
0.4240000000000003;-612691036.0;-604330412.0;-2.0;-2090.1554577768225;-2090.155890580595;0.0001627634637770825;0.019510077208906296;0.0;0.019510077208906296
0.4280000000000003;-621051658.0;-612691034.0;-2.0;-2090.1553684674577;-2090.1557278171313;7.804030883562518e-05;0.022327341184791294;0.0;0.022327341184791294
0.43200000000000033;-629412280.0;-621051656.0;-2.0;-2090.1552678969197;-2090.1556497768224;8.930936473916518e-05;0.025142634513031226;0.0;0.025142634513031226
0.43600000000000033;-637772901.0;-629412278.0;-2.0;-2090.155156074412;-2090.1555604674577;0.0001005705380521249;0.02795562693336251;0.0;0.02795562693336251
0.44000000000000034;-646133521.0;-637772899.0;-2.0;-2090.1550330090736;-2090.1554598969196;0.00011182250773345004;0.030766334589316102;0.0;0.030766334589316102
0.44400000000000034;-654494141.0;-646133520.0;-1.0;-2090.154898710861;-2090.155348074412;0.0002190653381148877;0.03357455318564462;0.0;0.03357455318564462
0.44800000000000034;-662854351.0;-654494140.0;-1.0;-2090.052477306567;-2090.155129009074;0.00013429821274257847;25.60535107340911;0.0;25.60535107340911
0.45200000000000035;-671212504.0;-662854759.0;408.0;-2089.5379547222587;-2090.154994710861;0.1416854042936393;128.63064607711294;0.0;128.63064607711294
0.45600000000000035;-679565491.0;-671214812.0;2308.0;-2088.2466434246503;-2090.0133093065674;0.6969225843085951;322.8278244021112;0.0;322.8278244021112
0.46000000000000035;-687906010.0;-679572077.0;6586.0;-2085.1298155338054;-2089.316386722259;1.7019992976083813;779.2069727112221;0.0;779.2069727112221
0.46400000000000036;-696216364.0;-687922534.0;16524.0;-2077.5884216562;-2087.6143874246504;4.070875890844945;1885.3484694013787;0.0;1885.3484694013787
0.46800000000000036;-704466765.0;-696256708.0;40344.0;-2062.60001534507;-2083.5435115338055;9.828113877605574;3747.101577782473;83.33333333333333;3663.7682444491397
0.47200000000000036;-712618014.0;-704551569.0;84804.0;-2037.812122116583;-2073.7153976562;19.256566311129973;6196.973307121766;83.33333333333333;6113.639973788433
0.47600000000000037;-720617789.0;-712769404.0;151390.0;-1999.9436418093799;-2054.45883134507;31.180149228486925;9467.120076800767;166.66666666666666;9300.453410134101
0.48000000000000037;-728410371.0;-720862518.0;244729.0;-1948.1454103890187;-2023.278682116583;46.8290243072031;12949.55785509029;250.0;12699.55785509029
0.4840000000000004;-735934700.0;-728768316.0;357945.0;-1881.0821413078754;-1976.44965780938;62.66696742036129;16765.81727028582;583.3333333333334;16182.483936952489
0.4880000000000004;-743105640.0;-736423446.0;488746.0;-1792.7349196345956;-1913.7826903890186;79.62016508114311;22086.805418319957;916.6666666666666;21170.13875165329
0.4920000000000004;-749913668.0;-743760096.0;654456.0;-1702.007116729841;-1834.1625253078755;104.25538167328;22681.950726188632;1416.6666666666667;21265.284059521964
0.4960000000000004;-756235727.0;-750679724.0;766056.0;-1580.5145582381647;-1729.9071436345955;101.44140290475434;30373.139622919098;2083.3333333333335;28289.806289585766
0.5000000000000003;-762036388.0;-757193586.0;957859.0;-1450.1652593534147;-1628.4657407298412;139.9056464916764;32587.324721187484;2833.3333333333335;29753.991387854152
0.5040000000000003;-767273525.0;-763147826.0;1111438.0;-1309.2842051029363;-1488.5600942381648;145.09288288475;35220.263562619606;3750.0;31470.263562619606
0.5080000000000003;-771917421.0;-768521694.0;1248169.0;-1160.973799298209;-1343.4672113534148;154.00723025047841;37077.60145118181;4666.666666666667;32410.93478451514
0.5120000000000003;-775955537.0;-773279533.0;1362112.0;-1009.5290184817317;-1189.4599811029364;159.24893380472736;37861.19520411936;5833.333333333333;32027.861870786022
0.5160000000000003;-779393852.0;-777400377.0;1444840.0;-859.5786048532561;-1030.211047298209;159.38666881647737;37487.603407118884;7083.333333333333;30404.27007378555
0.5200000000000004;-782252939.0;-780883674.0;1489822.0;-714.7718447044666;-870.8243784817316;154.2686856284755;36201.69003719738;8333.333333333334;27868.356703864047
0.5240000000000004;-784568888.0;-783749896.0;1496957.0;-578.9870739429314;-716.5556928532561;145.49172014878957;33946.19269038381;9583.333333333334;24362.859357050478
0.5280000000000004;-786389998.0;-786034151.0;1465263.0;-455.27753811496507;-571.0639727044666;132.7421467615352;30927.383956991576;10666.666666666666;20260.717290324912
