Zeit[sec];Sollposition[°];Istposition[°];Positionsschleppfehler[°];Sollgeschwindigkeit[°/s];Istgeschwindigkeit[°/s];Geschwindigkeitsdifferenz[°/s];Sollbeschleunigung[°/s*s];Istbeschleunigung[°/s*s];Beschleunigungsdifferenz[°/s*s]
0.0;0.0;5.0;-5.0;-0.0;-0.00021499999999999997;0.0;0.0;0.0;0.0
0.004;0.0;5.0;-5.0;-0.0;-0.00021499999999999997;0.0;0.0;0.0;0.0
0.008;0.0;5.0;-5.0;-0.0;-0.00021499999999999997;0.0;0.0;0.0;0.0
0.012;0.0;5.0;-5.0;-0.0;-0.00021499999999999997;0.0;0.0;0.0;0.0
0.016;0.0;5.0;-5.0;-0.0;-0.00021499999999999997;0.0;0.0;0.0;0.0
0.02;0.0;5.0;-5.0;-0.0;-0.00021499999999999997;0.0;0.0;0.0;0.0
0.024;0.0;5.0;-5.0;-0.0;-0.00021499999999999997;0.0;0.0;0.0;0.0
0.028;0.0;5.0;-5.0;-0.0;-0.00021499999999999997;0.0;0.0;0.0;0.0
0.032;0.0;5.0;-5.0;-0.0;-0.00021499999999999997;0.0;0.0;0.0;0.0
0.036000000000000004;0.0;5.0;-5.0;-0.0;-0.00021499999999999997;0.0;0.0;0.0;0.0
0.04000000000000001;0.0;5.0;-5.0;-0.0;-0.00021499999999999997;0.0;0.0;0.0;0.0
0.04400000000000001;0.0;5.0;-5.0;-0.0;-0.00021499999999999997;0.0;0.0;0.0;0.0
0.048000000000000015;0.0;5.0;-5.0;-0.0;-0.00021499999999999997;0.0;0.0;0.0;0.0
0.05200000000000002;0.0;5.0;-5.0;-0.0;-0.00021499999999999997;0.0;0.0;0.0;0.0
0.05600000000000002;-305.0;5.0;-5.0;-0.07637811991965109;-0.00021499999999999997;0.0;-19.09452997991277;0.0;-19.09452997991277
0.060000000000000026;-3350.0;5.0;-310.0;-0.7611593579794464;-0.00021499999999999997;-0.08949311991965107;-171.19530951494883;0.0;-171.19530951494883
0.06400000000000003;-18315.0;-353.0;-2997.0;-3.7412525913260954;-0.08970811991965108;-0.8003222380597953;-745.0233083366622;0.0;-745.0233083366622
0.06800000000000003;-67779.0;-3913.0;-14402.0;-12.366115480403927;-0.8900303579794464;-3.4705082333466493;-2156.2157222694577;0.0;-2156.2157222694577
0.07200000000000004;-193262.0;-21355.0;-46424.0;-31.370779255891932;-4.360538591326096;-10.00180888907783;-4751.165943872002;0.0;-4751.165943872002
0.07600000000000004;-455708.0;-78804.0;-114458.0;-65.61154464346639;-14.362347480403926;-21.93012577548801;-8560.191346893615;0.0;-8560.191346893615
0.08000000000000004;-929728.0;-223973.0;-231735.0;-118.50489631439704;-36.292473255891935;-39.283676387574445;-13223.337917732664;-83.33333333333333;-13140.00458439933
0.08400000000000005;-1696157.0;-526277.0;-403451.0;-191.60717685305164;-75.57614964346638;-60.277139670930666;-18275.57013466365;-333.3333333333333;-17942.236801330317
0.08800000000000005;-2838281.0;-1069690.0;-626467.0;-285.53099560461624;-135.85328931439705;-82.69196853865458;-23480.95468789115;-666.6666666666666;-22814.28802122448
0.09200000000000005;-4440882.0;-1943871.0;-894410.0;-400.6502637745383;-218.54525785305162;-105.44536775156462;-28779.817042480518;-1166.6666666666667;-27613.15037581385
0.09600000000000006;-6587574.0;-3239833.0;-1201049.0;-536.6728731562716;-323.99062560461624;-128.30474516992206;-34005.65234543334;-1750.0;-32255.652345433333
0.10000000000000006;-9355453.0;-5049014.0;-1538560.0;-691.9698744471551;-452.2953707745383;-150.53558238173338;-38824.25032272087;-2583.3333333333335;-36240.91698938754
0.10400000000000006;-12809607.0;-7460337.0;-1895116.0;-863.5383104419498;-602.8309531562717;-170.62890929088348;-42892.10899869866;-3583.3333333333335;-39308.77566536533
0.10800000000000007;-16997617.0;-10554176.0;-2255431.0;-1047.0026281015116;-773.4598624471552;-187.06198099479457;-45866.07941489047;-4750.0;-41116.07941489047
0.11200000000000007;-21943622.0;-14396263.0;-2601354.0;-1236.501087410836;-960.5218434419497;-198.33900665956196;-47374.614827331076;-6083.333333333333;-41291.28149399774
0.11600000000000008;-27645056.0;-19031706.0;-2911916.0;-1425.3585271210713;-1158.8608501015117;-202.85262530932414;-47214.35992755886;-7500.0;-39714.35992755886
0.12000000000000008;-34073581.0;-24478559.0;-3166497.0;-1607.1312145204458;-1361.7134754108358;-199.80442271023549;-45443.171849843624;-9083.333333333334;-36359.83851651029
0.12400000000000008;-41178022.0;-30724630.0;-3348951.0;-1776.110169885606;-1561.5178981210713;-189.61820939937456;-42244.73884129003;-10666.666666666666;-31578.072174623365
0.12800000000000009;-48888601.0;-37729174.0;-3448848.0;-1927.6444529632597;-1751.1361075204459;-173.27452636516;-37883.57076941344;-12166.666666666666;-25716.904102746772
0.1320000000000001;-57122749.0;-45426816.0;-3461785.0;-2058.5370408033205;-1924.4106338856059;-152.09057407765386;-32723.146960015187;-13583.333333333334;-19139.81362668185
0.1360000000000001;-65791166.0;-53732820.0;-3389929.0;-2167.1040595726677;-2076.5012079632597;-127.8027798400608;-27141.754692336803;-14916.666666666666;-12225.088025670138
0.1400000000000001;-74802965.0;-62550035.0;-3241131.0;-2252.949656402927;-2204.3039878033205;-102.16870476934719;-21461.399207564795;-16166.666666666666;-5294.73254089813
0.1440000000000001;-84070712.0;-71775925.0;-3027040.0;-2316.93658222356;-2306.4726925726677;-76.63968383025895;-15996.731455158282;-17166.666666666668;1169.9352115083848
0.1480000000000001;-93515549.0;-81308374.0;-2762338.0;-2361.2091661512213;-2383.1123764029267;-52.60473982063331;-11068.145981915335;-18000.0;6931.854018084664
0.1520000000000001;-103070817.0;-91051242.0;-2464307.0;-2388.8169469233226;-2435.71711622356;-31.457250927661335;-6901.945193025313;-18583.333333333332;11681.38814030802
0.1560000000000001;-112684136.0;-100919939.0;-2150878.0;-2403.3295342315364;-2467.1743671512213;-14.13033377210104;-3628.146827053456;-19000.0;15371.853172946543
0.16000000000000011;-122319009.0;-110845157.0;-1838979.0;-2408.7181713097193;-2481.3047009233223;-1.1009303082141741;-1347.1592695457275;-19166.666666666668;17819.507397120942
0.16400000000000012;-131954704.0;-120774779.0;-1544230.0;-2408.923760590373;-2482.4056312315365;7.285569921817114;-51.39732016345988;-19333.333333333332;19281.93601316987
0.16800000000000012;-141583064.0;-130675259.0;-1279445.0;-2407.089810695553;-2475.1200613097194;11.180165719346405;458.4874737050768;-19333.333333333332;19791.82080703841
0.17200000000000013;-151203566.0;-140531018.0;-1052046.0;-2405.1253107788143;-2463.939895590373;11.612106894820045;491.12497918463305;-19333.333333333332;19824.458312517963
0.17600000000000013;-160818836.0;-150340329.0;-863237.0;-2403.817394879362;-2452.327788695553;10.08328691673887;326.9789748630956;-19250.0;19576.978974863094
0.18000000000000013;-170431772.0;-160109307.0;-709529.0;-2403.2339319294147;-2442.244501778814;7.917359899452094;145.8657374868153;-19166.666666666668;19312.532404153484
0.18400000000000014;-180044313.0;-169846615.0;-585157.0;-2403.135218304196;-2434.327141879362;5.931458949947228;24.67840630470164;-19083.333333333332;19108.011739638034
0.18800000000000014;-189657311.0;-179560197.0;-484116.0;-2403.2493783731857;-2428.3956829294148;4.443476625218864;-28.540017247451033;-19000.0;18971.45998275255
0.19200000000000014;-199270885.0;-189256005.0;-401306.0;-2403.39344476761;-2423.952206304196;3.446669931010092;-36.01659860612472;-19000.0;18963.983401393874
0.19600000000000015;-208884837.0;-198938027.0;-332858.0;-2403.4878398972937;-2420.505536373186;2.7991976055755003;-23.59878242089053;-19000.0;18976.40121757911
0.20000000000000015;-218498930.0;-208608852.0;-275985.0;-2403.5229880677844;-2417.7063387676103;2.3511438703167187;-8.787042622657282;-18916.666666666668;18907.87962404401
0.20400000000000015;-228113009.0;-218270272.0;-228658.0;-2403.51961403089;-2415.3551948972936;1.9999128295094124;0.8435092236140918;-18833.333333333332;18834.176842556946
0.20800000000000016;-237727016.0;-227923693.0;-189316.0;-2403.5016979588736;-2413.355282067784;1.695080036894069;4.479018004076352;-18666.666666666668;18671.145684670744
0.21200000000000016;-247340955.0;-237570333.0;-156683.0;-2403.4847825391194;-2411.66020203089;1.4211350720165683;4.228854938560289;-18500.0;18504.22885493856
0.21600000000000016;-256954855.0;-247211289.0;-129666.0;-2403.474801130096;-2410.2390669588735;1.1786464197543864;2.495352255891703;-18166.666666666668;18169.162018922558
0.22000000000000017;-266568741.0;-256847530.0;-107325.0;-2403.471461112391;-2409.060420539119;0.9706444090234072;0.8350044262215306;-17750.0;17750.835004426222
0.22400000000000017;-276182630.0;-266479889.0;-88852.0;-2403.472069874291;-2408.0897761300957;0.7976790177049224;-0.15219047497794236;-17083.333333333332;17083.181142858353
0.22800000000000017;-285796527.0;-276109057.0;-73573.0;-2403.4740172093766;-2407.292097112391;0.6563882381001349;-0.4868337714469817;-16250.0;16249.513166228553
0.23200000000000018;-295410430.0;-285735599.0;-60928.0;-2403.4757407530974;-2406.6357088742907;0.5417876649139544;-0.4308859302000201;-15250.0;15249.5691140698
0.23600000000000018;-305024337.0;-295359974.0;-50456.0;-2403.476704636623;-2406.0939212093767;0.4485724562791802;-0.24097088135022204;-14083.333333333334;14083.092362451984
0.24000000000000019;-314638246.0;-304982555.0;-41782.0;-2403.4769911616627;-2405.6453487530976;0.3720181164749192;-0.07163125997067255;-12750.0;12749.92836874003
0.2440000000000002;-324252154.0;-314603648.0;-34598.0;-2403.4768969723964;-2405.2733306366226;0.3086254749600812;0.023547316573058197;-11250.0;11250.023547316574
0.2480000000000002;-333866061.0;-324223506.0;-28648.0;-2403.4766884766777;-2404.9647051616626;0.2559441892663017;0.05212392966313928;-9666.666666666666;9666.71879059633
0.25200000000000017;-343479967.0;-333842341.0;-23720.0;-2403.4765161676874;-2404.7087609723962;0.21211249571842927;0.043077247596556845;-8166.666666666667;8166.7097439142635
0.25600000000000017;-353093874.0;-343460327.0;-19640.0;-2403.4764257068355;-2404.496648476678;0.17561230899036673;0.02261521296986757;-6583.333333333333;6583.355948546303
0.2600000000000002;-362707780.0;-353077611.0;-16263.0;-2403.4764032365415;-2404.3210361676875;0.145301460851897;0.005617573492600059;-5166.666666666667;5166.67228424016
0.2640000000000002;-372321686.0;-362694313.0;-13467.0;-2403.4764166450964;-2404.1757347068356;0.12025047029419511;-0.003352138719492359;-3750.0;3749.9966478612805
0.2680000000000002;-381935592.0;-372310534.0;-11152.0;-2403.476439113261;-2404.0554842365414;0.09953159144515666;-0.005617041210825846;-2666.6666666666665;2666.6610496254557
0.2720000000000002;-391549498.0;-381926357.0;-9235.0;-2403.4764564150837;-2403.955952645096;0.08240853183497165;-0.0043254556203464745;-1666.6666666666667;1666.6623412110464
0.2760000000000002;-401163405.0;-391541851.0;-7647.0;-2403.4764649009244;-2403.8735441132612;0.06826669817746733;-0.002121460170201317;-833.3333333333334;833.3312118731632
0.2800000000000002;-410777311.0;-401157072.0;-6333.0;-2403.4764665606976;-2403.8052774150838;0.05649351415922865;-0.0004149433152633719;-166.66666666666666;166.6662517233514
0.2840000000000002;-420391217.0;-410772067.0;-5244.0;-2403.4764648531973;-2403.7487839009245;0.046825340226860135;0.0004268750899427687;250.0;-249.99957312491006
0.2880000000000002;-430005124.0;-420386874.0;-4343.0;-2403.476462471515;-2403.7019585606977;0.03874470750042747;0.0005954206017122488;416.6666666666667;-416.666071246065
0.2920000000000002;-439619030.0;-430001526.0;-3598.0;-2403.4764607515467;-2403.6632138531972;0.032037381682584964;0.00042999204197258223;583.3333333333334;-583.3329033412914
0.2960000000000002;-449232936.0;-439616050.0;-2980.0;-2403.4764599670166;-2403.6311764715147;0.026575719968150224;0.00019613253243733197;583.3333333333334;-583.3331372008009
0.3000000000000002;-458846842.0;-449230468.0;-2468.0;-2403.476459861317;-2403.6046007515465;0.02201678453002387;2.6424913812661543e-05;583.3333333333334;-583.3333069084196
0.3040000000000002;-468460749.0;-458844798.0;-2044.0;-2403.476460067337;-2403.5825839670165;0.018232105699553358;-5.150502602191409e-05;416.6666666666667;-416.6667181716927
0.3080000000000002;-478074655.0;-468459055.0;-1694.0;-2403.476460316949;-2403.564351861317;0.015049793979869719;-6.24030462859082e-05;416.6666666666667;-416.66672906971297
0.3120000000000002;-487688561.0;-478073252.0;-1403.0;-2403.4764604864504;-2403.549302067337;0.012512750387941196;-4.2375290831841994e-05;250.0;-250.00004237529083
0.3160000000000002;-497302468.0;-487687399.0;-1162.0;-2403.4764605578393;-2403.536789316949;0.010362830498706899;-1.7847241906565614e-05;250.0;-250.0000178472419
0.32000000000000023;-506916374.0;-497301504.0;-964.0;-2403.4764605621763;-2403.5264264864504;0.00851392861113709;-1.084231371351052e-06;166.66666666666666;-166.66666775089803
0.32400000000000023;-516530280.0;-506915575.0;-799.0;-2403.476460538173;-2403.5179125578393;0.007094995663010195;6.0008460422977805e-06;166.66666666666666;-166.66666066582061
0.32800000000000024;-526144187.0;-516529618.0;-662.0;-2403.4764605123196;-2403.5108175621763;0.005891024003176426;6.4633240981493145e-06;166.66666666666666;-166.66666020334256
0.33200000000000024;-535758093.0;-526143637.0;-550.0;-2403.4764604957163;-2403.504926538173;0.00481602585341534;4.150820132053923e-06;83.33333333333333;-83.3333291825132
0.33600000000000024;-545371999.0;-535757637.0;-456.0;-2403.4764604893885;-2403.5001105123197;0.004042016603307275;1.581952346896287e-06;166.66666666666666;-166.6666650847143
0.34000000000000025;-554985905.0;-545371621.0;-378.0;-2403.476460489513;-2403.4960684957164;0.0033540063277541776;-3.115019353572279e-08;83.33333333333333;-83.33333336448352
0.34400000000000025;-564599812.0;-554985591.0;-314.0;-2403.476460492187;-2403.4927144893886;0.0027519998757270514;-6.684786058031023e-07;83.33333333333333;-83.33333400181193
0.34800000000000025;-574213718.0;-564599550.0;-262.0;-2403.476460494954;-2403.489962489513;0.0022359973258971877;-6.917844075360335e-07;0.0;-6.917844075360335e-07
0.35200000000000026;-583827624.0;-574213500.0;-218.0;-2403.47646049654;-2403.487726492187;0.0018919972326330026;-3.964260031352751e-07;0.0;-3.964260031352751e-07
0.35600000000000026;-593441531.0;-583827443.0;-181.0;-2403.4764604970997;-2403.4858344949544;0.0015909984144855116;-1.3994849723530933e-07;0.0;-1.3994849723530933e-07
0.36000000000000026;-603055437.0;-593441379.0;-152.0;-2403.476460496944;-2403.48424349654;0.001246999440354557;3.888089850079268e-08;83.33333333333333;-83.33333329445243
0.36400000000000027;-612669343.0;-603055310.0;-127.0;-2403.476460496757;-2403.4829964970995;0.0010750001551969035;4.672529030358419e-08;83.33333333333333;-83.33333328660804
0.36800000000000027;-622283250.0;-612669237.0;-106.0;-2403.4764604964466;-2403.4819214969443;0.000903000187008729;7.764811016386375e-08;83.33333333333333;-83.33333325568522
0.3720000000000003;-631897156.0;-622283161.0;-89.0;-2403.4764604962597;-2403.4810184967573;0.0007310003106795193;4.672529030358419e-08;0.0;4.672529030358419e-08
0.3760000000000003;-641511062.0;-631897082.0;-74.0;-2403.476460496291;-2403.4802874964466;0.0006450001869779953;-7.844391802791506e-09;0.0;-7.844391802791506e-09
0.3800000000000003;-651124968.0;-641511000.0;-62.0;-2403.476460496198;-2403.4796424962597;0.0005159999686839001;2.3305801732931286e-08;0.0;2.3305801732931286e-08
0.3840000000000003;-660738875.0;-651124916.0;-52.0;-2403.4764604962597;-2403.479126496291;0.0004300000932744297;-1.546140993013978e-08;0.0;-1.546140993013978e-08
0.3880000000000003;-670352781.0;-660738830.0;-45.0;-2403.476460496291;-2403.4786964961977;0.0003009999381902162;-7.844391802791506e-09;0.0;-7.844391802791506e-09
0.3920000000000003;-679966687.0;-670352743.0;-38.0;-2403.476460496291;-2403.4783954962595;0.00030099996820354136;0.0;0.0;0.0
0.3960000000000003;-689580594.0;-679966655.0;-32.0;-2403.476460496291;-2403.4780944962913;0.00025800000003073364;0.0;0.0;0.0
0.4000000000000003;-699194500.0;-689580566.0;-28.0;-2403.4764604964157;-2403.4778364962913;0.0001720000000204891;-3.115019353572279e-08;0.0;-3.115019353572279e-08
0.4040000000000003;-708808406.0;-699194476.0;-24.0;-2403.476460496322;-2403.4776644962913;0.00017199987541971495;2.3419488570652902e-08;0.0;2.3419488570652902e-08
0.4080000000000003;-718422313.0;-708808385.0;-21.0;-2403.476460496291;-2403.477492496416;0.0001290000936933211;7.73070496506989e-09;0.0;7.73070496506989e-09
0.4120000000000003;-728036219.0;-718422294.0;-19.0;-2403.476460496291;-2403.477363496322;8.600003093306441e-05;0.0;0.0;0.0
0.4160000000000003;-737650125.0;-728036203.0;-16.0;-2403.4764604962597;-2403.477277496291;0.00012900000001536682;7.844391802791506e-09;0.0;7.844391802791506e-09
0.4200000000000003;-747264031.0;-737650111.0;-14.0;-2403.4764604962597;-2403.477148496291;8.600003138781176e-05;0.0;0.0;0.0
0.4240000000000003;-756877938.0;-747264019.0;-12.0;-2403.476460496322;-2403.47706249626;8.600000001024455e-05;-1.5575096767861396e-08;0.0;-1.5575096767861396e-08
0.4280000000000003;-766491844.0;-756877926.0;-12.0;-2403.476460496322;-2403.47697649626;-6.230038707144558e-11;0.0;0.0;0.0
0.43200000000000033;-776105750.0;-766491833.0;-11.0;-2403.4764604963534;-2403.476976496322;4.3000000005122274e-05;-7.844391802791506e-09;0.0;-7.844391802791506e-09
0.43600000000000033;-785719657.0;-776105740.0;-10.0;-2403.476460496322;-2403.476933496322;4.299996862755506e-05;7.844391802791506e-09;0.0;7.844391802791506e-09
0.44000000000000034;-795333563.0;-785719647.0;-10.0;-2403.476460496322;-2403.4768904963535;3.1377567211166024e-11;0.0;0.0;0.0
0.44400000000000034;-804947469.0;-795333554.0;-9.0;-2403.4764604962597;-2403.476890496322;4.3000000005122274e-05;1.5575096767861396e-08;0.0;1.5575096767861396e-08
0.44800000000000034;-814561376.0;-804947461.0;-8.0;-2403.476460496322;-2403.476847496322;4.3000062305509346e-05;-1.5575096767861396e-08;0.0;-1.5575096767861396e-08
0.45200000000000035;-824175282.0;-814561368.0;-8.0;-2403.4764604963534;-2403.47680449626;-6.230038707144558e-11;-7.844391802791506e-09;0.0;-7.844391802791506e-09
0.45600000000000035;-833789188.0;-824175275.0;-7.0;-2403.476460496322;-2403.476804496322;4.299996862755506e-05;7.844391802791506e-09;0.0;7.844391802791506e-09
0.46000000000000035;-843403094.0;-833789182.0;-6.0;-2403.476460496322;-2403.4767614963534;4.3000031382689485e-05;0.0;0.0;0.0
0.46400000000000036;-853017001.0;-843403088.0;-6.0;-2403.4764604963843;-2403.476718496322;0.0;-1.5575096767861396e-08;0.0;-1.5575096767861396e-08
0.46800000000000036;-862630907.0;-853016994.0;-7.0;-2403.4764604962597;-2403.476718496322;-4.3000062305509346e-05;3.115019353572279e-08;0.0;3.115019353572279e-08
0.47200000000000036;-872244813.0;-862630901.0;-6.0;-2403.476460496322;-2403.4767614963844;4.300012460589642e-05;-1.5575096767861396e-08;0.0;-1.5575096767861396e-08
0.47600000000000037;-881858720.0;-872244807.0;-6.0;-2403.476460496322;-2403.4767184962598;-6.230038707144558e-11;0.0;0.0;0.0
0.48000000000000037;-891472626.0;-881858713.0;-7.0;-2403.4764604963534;-2403.476718496322;-4.3000000005122274e-05;-7.844391802791506e-09;0.0;-7.844391802791506e-09
0.4840000000000004;-901086532.0;-891472620.0;-6.0;-2403.476460496322;-2403.476761496322;4.299996862755506e-05;7.844391802791506e-09;0.0;7.844391802791506e-09
0.4880000000000004;-910700439.0;-901086526.0;-6.0;-2403.4764604963534;-2403.4767184963534;3.1377567211166024e-11;-7.844391802791506e-09;0.0;-7.844391802791506e-09
0.4920000000000004;-920314345.0;-910700432.0;-7.0;-2403.4764604962293;-2403.476718496322;-4.3000031382689485e-05;3.1036506698001176e-08;0.0;3.1036506698001176e-08
0.4960000000000004;-929928251.0;-920314339.0;-6.0;-2403.4764604963534;-2403.4767614963534;4.3000124151149066e-05;-3.1036506698001176e-08;0.0;-3.1036506698001176e-08
0.5000000000000003;-939542157.0;-929928245.0;-6.0;-2403.476460496322;-2403.4767184962293;-1.241460267920047e-10;7.844391802791506e-09;0.0;7.844391802791506e-09
0.5040000000000003;-949156064.0;-939542151.0;-6.0;-2403.476460496322;-2403.4767184963534;3.1377567211166024e-11;0.0;0.0;0.0
0.5080000000000003;-958769970.0;-949156057.0;-7.0;-2403.4764604963534;-2403.476718496322;-4.3000000005122274e-05;-7.844391802791506e-09;0.0;-7.844391802791506e-09
0.5120000000000003;-968383876.0;-958769964.0;-6.0;-2403.476460496322;-2403.476761496322;4.299996862755506e-05;7.844391802791506e-09;0.0;7.844391802791506e-09
0.5160000000000003;-977997783.0;-968383870.0;-6.0;-2403.476460496322;-2403.4767184963534;3.1377567211166024e-11;0.0;0.0;0.0
