Zeit[sec];Sollposition[°];Istposition[°];Positionsschleppfehler[°];Sollgeschwindigkeit[°/s];Istgeschwindigkeit[°/s];Geschwindigkeitsdifferenz[°/s];Sollbeschleunigung[°/s*s];Istbeschleunigung[°/s*s];Beschleunigungsdifferenz[°/s*s]
0.0;0.0;5.0;-5.0;-0.0;-0.00021499999999999997;0.0;0.0;0.0;0.0
0.004;0.0;5.0;-5.0;-0.0;-0.00021499999999999997;0.0;0.0;0.0;0.0
0.008;0.0;5.0;-5.0;-0.0;-0.00021499999999999997;0.0;0.0;0.0;0.0
0.012;0.0;5.0;-5.0;-0.0;-0.00021499999999999997;0.0;0.0;0.0;0.0
0.016;0.0;5.0;-5.0;-0.0;-0.00021499999999999997;0.0;0.0;0.0;0.0
0.02;0.0;5.0;-5.0;-0.0;-0.00021499999999999997;0.0;0.0;0.0;0.0
0.024;0.0;5.0;-5.0;-0.0;-0.00021499999999999997;0.0;0.0;0.0;0.0
0.028;0.0;5.0;-5.0;-0.0;-0.00021499999999999997;0.0;0.0;0.0;0.0
0.032;0.0;5.0;-5.0;-0.0;-0.00021499999999999997;0.0;0.0;0.0;0.0
0.036000000000000004;0.0;5.0;-5.0;-0.0;-0.00021499999999999997;0.0;0.0;0.0;0.0
0.04000000000000001;0.0;5.0;-5.0;-0.0;-0.00021499999999999997;0.0;0.0;0.0;0.0
0.04400000000000001;0.0;5.0;-5.0;-0.0;-0.00021499999999999997;0.0;0.0;0.0;0.0
0.048000000000000015;0.0;5.0;-5.0;-0.0;-0.00021499999999999997;0.0;0.0;0.0;0.0
0.05200000000000002;0.0;5.0;-5.0;-0.0;-0.00021499999999999997;0.0;0.0;0.0;0.0
0.05600000000000002;0.0;5.0;-5.0;-0.0;-0.00021499999999999997;0.0;0.0;0.0;0.0
0.060000000000000026;-470.0;5.0;-5.0;-0.1176905351192331;-0.00021499999999999997;0.0;-29.422633779808272;0.0;-29.422633779808272
0.06400000000000003;-5162.0;5.0;-475.0;-1.172865373563158;-0.00021499999999999997;-0.1379005351192331;-263.79370961098124;0.0;-263.79370961098124
0.06800000000000003;-28221.0;-547.0;-4615.0;-5.76487114310473;-0.13811553511923308;-1.2331948384439249;-1148.0014423853931;0.0;-1148.0014423853931
0.07200000000000004;-104441.0;-6032.0;-22189.0;-19.054864793293934;-1.371310373563158;-5.347687769541572;-3322.498412547301;0.0;-3322.498412547301
0.07600000000000004;-297797.0;-32907.0;-71534.0;-48.33902433860582;-6.71899814310473;-15.411828650189204;-7321.039886327971;0.0;-7321.039886327971
0.08000000000000004;-702198.0;-121430.0;-176367.0;-101.10039114881396;-22.130826793293934;-33.791978545311885;-13190.341702552034;0.0;-13190.341702552034
0.08400000000000005;-1432612.0;-345121.0;-357077.0;-182.60340364699996;-55.92280533860582;-60.53189681020813;-20375.753124546503;-166.66666666666666;-20209.086457879836
0.08800000000000005;-2613597.0;-810939.0;-621673.0;-295.2462197319869;-116.45470214881395;-92.880640498186;-28160.704021246736;-500.0;-27660.704021246736
0.09200000000000005;-4373488.0;-1648280.0;-965317.0;-439.97280505427244;-209.33534264699995;-127.41950808498694;-36181.646330571384;-1000.0;-35181.646330571384
0.09600000000000006;-6842926.0;-2995299.0;-1378189.0;-617.3593168942756;-336.7548507319869;-162.48008132228557;-44346.62796000079;-1750.0;-42596.62796000079
0.10000000000000006;-10150748.0;-4992238.0;-1850688.0;-826.9556476665103;-499.23493205427246;-197.70396884000309;-52399.082693058685;-2750.0;-49649.082693058685
0.10400000000000006;-14415756.0;-7779993.0;-2370755.0;-1066.2517602646226;-696.9389008942755;-231.95921177223477;-59824.02814952806;-4000.0;-55824.02814952806
0.10800000000000007;-19738879.0;-11495585.0;-2920171.0;-1330.780812988803;-928.8981126665103;-262.9210005981122;-66132.26318104511;-5500.0;-60632.26318104512
0.11200000000000007;-26197588.0;-16262861.0;-3476018.0;-1614.6772120333214;-1191.8191132646225;-288.4304737241805;-70974.09976112959;-7333.333333333333;-63640.76642779626
0.11600000000000008;-33841652.0;-22183859.0;-4013729.0;-1911.0158749210539;-1480.249586988803;-307.0179720445185;-74084.66572193311;-9416.666666666666;-64667.99905526644
0.12000000000000008;-42691287.0;-29332929.0;-4508723.0;-2212.4086611663774;-1787.2675590333215;-317.62340488773225;-75348.1965613309;-11666.666666666666;-63681.52989466423
0.12400000000000008;-52736366.0;-37752492.0;-4938795.0;-2511.2696849962495;-2104.8909639210538;-319.8858822453235;-74715.255957468;-13916.666666666666;-60798.589290801334
0.12800000000000009;-63934442.0;-47451599.0;-5284767.0;-2799.5186820495414;-2424.7768461663773;-313.737819829872;-72062.249263323;-16416.666666666668;-55645.58259665633
0.1320000000000001;-76210778.0;-58405657.0;-5528785.0;-3069.084037363238;-2738.5146659962493;-298.74177105329227;-67391.33882842418;-18916.666666666668;-48474.67216175752
0.1360000000000001;-89463472.0;-70554682.0;-5656096.0;-3313.173275654394;-3037.2564370495415;-275.03972831369674;-61022.309572788916;-21416.666666666668;-39605.642906122244
0.1400000000000001;-103571457.0;-83803866.0;-5659606.0;-3526.9959716072362;-3312.2961653632383;-244.24016829115544;-53455.673988210605;-23666.666666666668;-29789.007321543937
0.1440000000000001;-118402514.0;-98030011.0;-5541446.0;-3707.764230703269;-3556.5363336543937;-208.74181595284244;-45192.06477400815;-25750.0;-19442.064774008144
0.1480000000000001;-133820410.0;-113091123.0;-5311391.0;-3854.4738027864605;-3765.278149607236;-170.87589409603243;-36677.39302079792;-27666.666666666668;-9010.726354131253
0.1520000000000001;-149690552.0;-128835739.0;-4984671.0;-3967.5353474901153;-3936.1540437032686;-132.66061208319206;-28265.386175913703;-29333.333333333332;1067.9471574196277
0.1560000000000001;-165884529.0;-145110997.0;-4579555.0;-4048.494045209556;-4068.8146557864607;-95.64155670365426;-20239.674429860203;-30666.666666666668;10426.992236806465
0.16000000000000011;-182286727.0;-161768821.0;-4115708.0;-4100.549100375999;-4164.456212490115;-61.01327671944091;-13013.7637916107;-31666.666666666668;18652.902875055966
0.16400000000000012;-198803711.0;-178670698.0;-3616029.0;-4129.245891225865;-4225.469489209556;-30.568858166443533;-7174.197712466594;-32416.666666666668;25242.468954200074
0.16800000000000012;-215370474.0;-195694851.0;-3108860.0;-4141.690626682906;-4256.038347375999;-6.888523849866033;-3111.1838642602834;-32916.666666666664;29805.482802406383
0.17200000000000013;-231949147.0;-212746558.0;-2623916.0;-4144.668015650224;-4262.926871225865;8.407856542959053;-744.3472418294732;-33250.0;32505.652758170527
0.17600000000000013;-248522511.0;-229764634.0;-2184513.0;-4143.340807350899;-4254.519014682906;15.91694003268185;331.8020748313302;-33333.333333333336;33665.135408164664
0.18000000000000013;-265086257.0;-246719042.0;-1803469.0;-4140.936230746804;-4238.6020746502245;17.712100299325357;601.1441510238456;-33250.0;33851.144151023844
0.18400000000000014;-281642270.0;-263602601.0;-1483656.0;-4139.003033618566;-4220.889974350899;16.156535604095552;483.2992820593063;-33083.333333333336;33566.63261539264
0.18800000000000014;-298194058.0;-280421534.0;-1220736.0;-4137.94678537524;-4204.733438746804;13.238757128237012;264.0620608315203;-32916.666666666664;33180.728727498186
0.19200000000000014;-314744453.0;-297187512.0;-1006546.0;-4137.59862017299;-4191.494681618567;10.26641824332637;87.04130056253234;-32833.333333333336;32920.374633895866
0.19600000000000015;-331294985.0;-313912425.0;-832028.0;-4137.6329198815465;-4181.22826337524;7.852439202250025;-8.574927139079591;-32750.0;32741.42507286092
0.20000000000000015;-347846127.0;-330605928.0;-689057.0;-4137.785121447016;-4173.37582417299;6.113453291443875;-38.05039136727828;-32666.666666666668;32628.61627529939
0.20400000000000015;-364397781.0;-347274977.0;-571150.0;-4137.913297932345;-4167.262370881546;4.917799434530934;-32.044121332319264;-32583.333333333332;32551.289212001015
0.20800000000000016;-380949685.0;-363924355.0;-473426.0;-4137.975888209285;-4162.344571447015;4.0739555146701605;-15.647569234943148;-32500.0;32484.35243076506
0.21200000000000016;-397501626.0;-380557437.0;-392248.0;-4137.985003312831;-4158.270615932345;3.4280637230604043;-2.278775886679796;-32333.333333333332;32331.054557446652
0.21600000000000016;-414053498.0;-397176807.0;-324819.0;-4137.967919323244;-4154.842552209285;2.8903318964530627;4.270997396815801;-32000.0;32004.270997396816
0.22000000000000017;-430605285.0;-413784615.0;-268883.0;-4137.946493816919;-4151.952220312832;2.422331989587292;5.356376581175937;-31416.666666666668;31422.023043247842
0.22400000000000017;-447157012.0;-430382734.0;-222551.0;-4137.931477181067;-4149.529888323244;2.013701506324651;3.754158963147347;-30666.666666666668;30670.420825629815
0.22800000000000017;-463708712.0;-446972798.0;-184214.0;-4137.924797823322;-4147.51618681692;1.6635076358525112;1.6698394363174884;-29666.666666666668;29668.336506102984
0.23200000000000018;-480260409.0;-463556208.0;-152504.0;-4137.924026411616;-4145.852679181067;1.3702093577458072;0.19285292637505336;-28416.666666666668;28416.859519593043
0.23600000000000018;-496812113.0;-480134137.0;-126272.0;-4137.925908135129;-4144.4824698233215;1.1287474117052625;-0.4704308782947919;-26916.666666666668;26916.196235788375
0.24000000000000019;-513363826.0;-496707551.0;-104562.0;-4137.9281156087545;-4143.353722411616;0.931648276487067;-0.5518684063190449;-25083.333333333332;25082.781464927015
0.2440000000000002;-529915545.0;-513277239.0;-86587.0;-4137.929594771977;-4142.422074135129;0.7707175263749377;-0.369790805507364;-23000.0;22999.630209194493
0.2480000000000002;-546467267.0;-529843844.0;-71701.0;-4137.930209150672;-4141.651356608754;0.6386188367778232;-0.15359467397502158;-20750.0;20749.846405326025
0.25200000000000017;-563018989.0;-546407894.0;-59373.0;-4137.930241047468;-4141.012737771976;0.5294896213035827;-0.007974198979354696;-18333.333333333332;18333.325359134353
0.25600000000000017;-579570710.0;-562969826.0;-49163.0;-4137.930029604243;-4140.483248150673;0.4389981032045398;0.05286080636324186;-15916.666666666666;15916.71952747303
0.2600000000000002;-596122430.0;-579530003.0;-40707.0;-4137.929804432736;-4140.044250047468;0.36381944322511117;0.05629287670672056;-13416.666666666666;13416.722959543373
0.2640000000000002;-612674149.0;-596088724.0;-33706.0;-4137.929662049797;-4139.680430604243;0.30126817150721763;0.035595734743765206;-11000.0;11000.035595734744
0.2680000000000002;-629225868.0;-612646240.0;-27909.0;-4137.929608398879;-4139.379162432736;0.24941338293865556;0.013412729458650574;-8666.666666666666;8666.680079396125
0.2720000000000002;-645777588.0;-629202758.0;-23110.0;-4137.929611107081;-4139.129749049797;0.20641065091786004;-0.0006770503659936367;-6500.0;6499.999322949634
0.2760000000000002;-662329307.0;-645758451.0;-19137.0;-4137.929635228645;-4138.923338398879;0.17083629179887794;-0.006030390977684874;-4666.666666666667;4666.660636275689
0.2800000000000002;-678881026.0;-662313461.0;-15846.0;-4137.929658464968;-4138.7525021070805;0.14148887843566627;-0.005809080903418362;-3000.0;2999.9941909190966
0.2840000000000002;-695432746.0;-678867905.0;-13121.0;-4137.929672274588;-4138.611013228645;0.1171517636767021;-0.0034524048260209383;-1666.6666666666667;1666.6632142618407
0.2880000000000002;-711984465.0;-695421880.0;-10866.0;-4137.929676935907;-4138.493861464968;0.09695119038042321;-0.0011653298770397669;-666.6666666666666;666.6655013367896
0.2920000000000002;-728536185.0;-711975467.0;-8998.0;-4137.929676132628;-4138.396910274588;0.0803193386809653;0.0002008198407565942;83.33333333333333;-83.33313251349257
0.2960000000000002;-745087904.0;-728528733.0;-7452.0;-4137.929673466711;-4138.316590935907;0.06647880327909661;0.0006664790817012545;583.3333333333334;-583.3326668542517
0.3000000000000002;-761639624.0;-745081733.0;-6171.0;-4137.929671100001;-4138.250112132628;0.055085665916521975;0.00059167768995394;916.6666666666666;-916.6660749889767
0.3040000000000002;-778191343.0;-761634513.0;-5111.0;-4137.929669776883;-4138.195026466711;0.04558236671073246;0.00033077935768233147;916.6666666666666;-916.666335887309
0.3080000000000002;-794743063.0;-778187110.0;-4233.0;-4137.9296693861725;-4138.1494441;0.03775532311738061;9.76776846073335e-05;833.3333333333334;-833.3332356556488
0.3120000000000002;-811294782.0;-794739556.0;-3507.0;-4137.929669519436;-4138.111688776883;0.03121839071081922;-3.331592779431958e-05;750.0;-750.0000333159278
0.3160000000000002;-827846502.0;-811291877.0;-2905.0;-4137.9296698091575;-4138.080470386172;0.025885866735734453;-7.243033905979246e-05;666.6666666666666;-666.6667390970057
0.32000000000000023;-844398221.0;-827844095.0;-2407.0;-4137.929670048043;-4138.0545845194365;0.021413710279375664;-5.9721287470893e-05;583.3333333333334;-583.3333930546208
0.32400000000000023;-860949940.0;-844396227.0;-1994.0;-4137.92967017347;-4138.033170809157;0.01775876111423713;-3.135687620670069e-05;416.6666666666667;-416.6666980235429
0.32800000000000024;-877501660.0;-860948288.0;-1652.0;-4137.929670204501;-4138.015412048043;0.014705874572428002;-7.757762432447635e-06;333.3333333333333;-333.33334109109575
0.33200000000000024;-894053379.0;-877500290.0;-1370.0;-4137.929670186032;-4138.0007061734705;0.012125968969485257;4.6172772272257134e-06;250.0;-249.99999538272277
0.33600000000000024;-910605099.0;-894052244.0;-1135.0;-4137.929670154815;-4137.988580204501;0.010105018468493654;7.804374035913497e-06;250.0;-249.99999219562596
0.34000000000000025;-927156818.0;-910604157.0;-942.0;-4137.929670130873;-4137.9784751860325;0.008299031217575248;5.985384632367641e-06;250.0;-249.99999401461537
0.34400000000000025;-943708538.0;-927156037.0;-781.0;-4137.929670119244;-4137.970176154815;0.006923023941453721;2.907199814217165e-06;166.66666666666666;-166.66666375946684
0.34800000000000025;-960260257.0;-943707890.0;-648.0;-4137.929670116912;-4137.963253130873;0.005719011629480519;5.82986103836447e-07;83.33333333333333;-83.33333275034722
0.35200000000000026;-976811977.0;-960259720.0;-537.0;-4137.929670119244;-4137.957534119244;0.004773002331603493;-5.82986103836447e-07;83.33333333333333;-83.33333391631943
0.35600000000000026;-993363696.0;-976811531.0;-446.0;-4137.929670122696;-4137.952761116912;0.003912997668521712;-8.628830983070657e-07;83.33333333333333;-83.33333419621643
0.36000000000000026;-1009915416.0;-993363326.0;-370.0;-4137.929670124965;-4137.948848119244;0.003267996547947405;-5.67297320230864e-07;83.33333333333333;-83.33333390063065
0.36400000000000027;-1026467135.0;-1009915108.0;-308.0;-4137.929670126054;-4137.945580122696;0.0026659977311283;-2.721662895055488e-07;83.33333333333333;-83.33333360549962
0.36800000000000027;-1043018855.0;-1026466879.0;-256.0;-4137.9296701261155;-4137.942914124965;0.0022359989106917055;-1.546140993013978e-08;83.33333333333333;-83.33333334879474
0.3720000000000003;-1059570574.0;-1043018641.0;-214.0;-4137.929670125898;-4137.940678126054;0.0018059999383694958;5.434230843093246e-08;83.33333333333333;-83.33333327899102
0.3760000000000003;-1076122294.0;-1059570396.0;-178.0;-4137.9296701254625;-4137.938872126116;0.0015480002175536356;1.0891199053730816e-07;0.0;1.0891199053730816e-07
0.3800000000000003;-1092674013.0;-1076122145.0;-149.0;-4137.929670125307;-4137.937324125898;0.001247000435796508;3.888089850079268e-08;0.0;3.888089850079268e-08
0.3840000000000003;-1109225732.0;-1092673889.0;-124.0;-4137.929670125307;-4137.936077125462;0.0010750001556516509;0.0;0.0;0.0
0.3880000000000003;-1125777452.0;-1109225629.0;-103.0;-4137.929670125214;-4137.935002125307;0.0009030000001075678;2.319211489520967e-08;0.0;2.319211489520967e-08
0.3920000000000003;-1142329171.0;-1125777365.0;-87.0;-4137.929670125182;-4137.934099125307;0.0006880000919409213;7.958078640513122e-09;0.0;7.958078640513122e-09
0.3960000000000003;-1158880891.0;-1142329098.0;-73.0;-4137.929670125307;-4137.933411125215;0.0006020000319040264;-3.115019353572279e-08;0.0;-3.115019353572279e-08
0.4000000000000003;-1175432610.0;-1158880829.0;-62.0;-4137.92967012537;-4137.932809125183;0.00047299987545557087;-1.5688783605583012e-08;0.0;-1.5688783605583012e-08
0.4040000000000003;-1191984330.0;-1175432558.0;-52.0;-4137.929670125245;-4137.932336125307;0.0004299999372960883;3.115019353572279e-08;0.0;3.115019353572279e-08
0.4080000000000003;-1208536049.0;-1191984285.0;-45.0;-4137.92967012537;-4137.93190612537;0.00030100012463663006;-3.115019353572279e-08;0.0;-3.115019353572279e-08
0.4120000000000003;-1225087769.0;-1208536011.0;-38.0;-4137.929670125307;-4137.931605125245;0.0003009998754350818;1.5688783605583012e-08;0.0;1.5688783605583012e-08
0.4160000000000003;-1241639488.0;-1225087736.0;-33.0;-4137.929670125245;-4137.93130412537;0.0002150000627807458;1.546140993013978e-08;0.0;1.546140993013978e-08
0.4200000000000003;-1258191208.0;-1241639460.0;-28.0;-4137.929670125307;-4137.931089125307;0.0002150000618712511;-1.546140993013978e-08;83.33333333333333;-83.33333334879474
0.4240000000000003;-1274742927.0;-1258191183.0;-25.0;-4137.92967012537;-4137.930874125245;0.0001289999381697271;-1.5688783605583012e-08;83.33333333333333;-83.33333334902211
0.4280000000000003;-1291294647.0;-1274742905.0;-22.0;-4137.929670125245;-4137.930745125307;0.0001289999372602324;3.115019353572279e-08;83.33333333333333;-83.33333330218314
0.43200000000000033;-1307846161.0;-1291294627.0;-20.0;-4137.87832223562;-4137.93061612537;8.600012461101869e-05;12.836972406375935;0.0;12.836972406375935
0.43600000000000033;-1324396141.0;-1307846349.0;188.0;-4137.494975689293;-4137.930530125245;0.06029188962565968;95.83663658168007;0.0;95.83663658168007
0.44000000000000034;-1340940562.0;-1324397829.0;1688.0;-4136.105033462752;-4137.87023823562;0.44784654632621823;347.4855566353199;0.0;347.4855566353199
0.44400000000000034;-1357470129.0;-1340947518.0;6956.0;-4132.391430013953;-4137.422391689293;1.6164662265418883;928.4008621996236;0.0;928.4008621996236
0.44800000000000034;-1373964031.0;-1357490741.0;20612.0;-4123.475389410485;-4135.8059254627515;4.300811448798413;2229.0101508669977;0.0;2229.0101508669977
0.45200000000000035;-1390380076.0;-1374016761.0;52730.0;-4104.010914821603;-4131.505114013953;10.29711460346789;4866.118647220446;0.0;4866.118647220446
0.45600000000000035;-1406647782.0;-1390501592.0;121516.0;-4066.926467739784;-4121.207999410485;22.42227258888215;9271.111770454809;0.0;9271.111770454809
0.46000000000000035;-1422669182.0;-1406896734.0;248952.0;-4005.3498625606117;-4098.785726821603;42.56419508181898;15394.151294793119;166.66666666666666;15227.484628126453
0.46400000000000036;-1438325044.0;-1423121620.0;452438.0;-3913.9652012267793;-4056.221531739784;70.3265031791725;22846.165333458088;333.3333333333333;22512.832000124756
0.46800000000000036;-1453482777.0;-1439065200.0;740156.0;-3789.432988236472;-3985.8950285606115;103.75653533383229;31133.053247576867;750.0;30383.053247576867
0.47200000000000036;-1468004205.0;-1454593753.0;1110976.0;-3630.35688846762;-3882.1384932267792;140.47747299030743;39769.02494221292;1250.0;38519.02494221292
0.47600000000000037;-1481751933.0;-1469560397.0;1556192.0;-3436.9319777656356;-3741.661020236472;178.22038776885165;48356.22767549614;2083.3333333333335;46272.89434216281
0.48000000000000037;-1494594403.0;-1483814159.0;2062226.0;-3210.617241902507;-3563.44063246762;215.18437270198456;56578.68396578215;3166.6666666666665;53412.01729911548
0.4840000000000004;-1506412878.0;-1497207184.0;2612781.0;-2954.6186794295645;-3348.2562597656356;249.9886008631288;63999.640618235615;4583.333333333333;59416.30728490229
0.4880000000000004;-1517111118.0;-1509600254.0;3187376.0;-2674.559677364643;-3098.267658902507;280.7061474729421;70014.75051623039;6250.0;63764.75051623038
0.4920000000000004;-1526622775.0;-1520870500.0;3759382.0;-2377.914252504533;-2817.5615114295647;304.65526006492155;74161.35621502747;8250.0;65911.35621502747
0.4960000000000004;-1534914606.0;-1530922125.0;4299350.0;-2072.9577122313353;-2512.906251364643;319.86404886010996;76239.13506829945;10333.333333333334;65905.80173496611
0.5000000000000003;-1541987606.0;-1539694293.0;4779687.0;-1768.2498814837438;-2193.042202504533;325.6110312731978;76176.95768689788;12750.0;63426.95768689788
0.5040000000000003;-1547875640.0;-1547164017.0;5176411.0;-1472.0083030328942;-1867.4311712313354;321.7669627475916;74060.3946127124;15166.666666666666;58893.727946045736
0.5080000000000003;-1552641991.0;-1553346673.0;5471033.0;-1191.5878412336647;-1545.6642084837438;308.91032445084943;70105.11544980739;17750.0;52355.11544980739
