Zeit[sec];Sollposition[°];Istposition[°];Positionsschleppfehler[°];Sollgeschwindigkeit[°/s];Istgeschwindigkeit[°/s];Geschwindigkeitsdifferenz[°/s];Sollbeschleunigung[°/s*s];Istbeschleunigung[°/s*s];Beschleunigungsdifferenz[°/s*s]
0.0;0.0;2.0;-2.0;-0.0;-0.000192;0.0;0.0;0.0;0.0
0.004;0.0;2.0;-2.0;-0.0;-0.000192;0.0;0.0;0.0;0.0
0.008;0.0;2.0;-2.0;-0.0;-0.000192;0.0;0.0;0.0;0.0
0.012;0.0;2.0;-2.0;-0.0;-0.000192;0.0;0.0;0.0;0.0
0.016;0.0;2.0;-2.0;-0.0;-0.000192;0.0;0.0;0.0;0.0
0.02;0.0;2.0;-2.0;-0.0;-0.000192;0.0;0.0;0.0;0.0
0.024;0.0;2.0;-2.0;-0.0;-0.000192;0.0;0.0;0.0;0.0
0.028;0.0;2.0;-2.0;-0.0;-0.000192;0.0;0.0;0.0;0.0
0.032;0.0;2.0;-2.0;-0.0;-0.000192;0.0;0.0;0.0;0.0
0.036000000000000004;0.0;2.0;-2.0;-0.0;-0.000192;0.0;0.0;0.0;0.0
0.04000000000000001;0.0;2.0;-2.0;-0.0;-0.000192;0.0;0.0;0.0;0.0
0.04400000000000001;0.0;2.0;-2.0;-0.0;-0.000192;0.0;0.0;0.0;0.0
0.048000000000000015;0.0;2.0;-2.0;-0.0;-0.000192;0.0;0.0;0.0;0.0
0.05200000000000002;0.0;2.0;-2.0;-0.0;-0.000192;0.0;0.0;0.0;0.0
0.05600000000000002;0.0;2.0;-2.0;-0.0;-0.000192;0.0;0.0;0.0;0.0
0.060000000000000026;0.0;2.0;-2.0;-0.0;-0.000192;0.0;0.0;0.0;0.0
0.06400000000000003;0.0;2.0;-2.0;-0.0;-0.000192;0.0;0.0;0.0;0.0
0.06800000000000003;0.0;2.0;-2.0;-0.0;-0.000192;0.0;0.0;0.0;0.0
0.07200000000000004;0.0;2.0;-2.0;-0.0;-0.000192;0.0;0.0;0.0;0.0
0.07600000000000004;0.0;2.0;-2.0;-0.0;-0.000192;0.0;0.0;0.0;0.0
0.08000000000000004;0.0;2.0;-2.0;-0.0;-0.000192;0.0;0.0;0.0;0.0
0.08400000000000005;0.0;2.0;-2.0;-0.0;-0.000192;0.0;0.0;0.0;0.0
0.08800000000000005;-151.0;2.0;-2.0;-0.037806640119232106;-0.000192;0.0;-9.451660029808027;0.0;-9.451660029808027
0.09200000000000005;-1658.0;2.0;-153.0;-0.3767686079571957;-0.000192;-0.05230264011923211;-84.7404919594909;0.0;-84.7404919594909
0.09600000000000006;-9065.0;-207.0;-1451.0;-1.851894108734393;-0.052494640119232105;-0.46356996783796356;-368.7813751942993;0.0;-368.7813751942993
0.10000000000000006;-117937.0;-2271.0;-6794.0;-27.217935023989153;-0.5160646079571957;-1.9880535007771973;-6341.5102288136895;0.0;-6341.5102288136895
0.10400000000000006;-284995.0;-12287.0;-105650.0;-41.76435332581304;-2.504118108734393;-34.856216915254755;-3636.604575455972;0.0;-3636.604575455972
0.10800000000000007;-575578.0;-161728.0;-123267.0;-72.64578548410823;-37.36033502398915;-16.23765030182389;-7720.358039573797;-83.33333333333333;-7637.024706240464
0.11200000000000007;-1008896.0;-376119.0;-199459.0;-108.32961315991625;-53.59798532581304;-38.195864158295194;-8920.956918952004;-166.66666666666666;-8754.290252285338
0.11600000000000008;-1577487.0;-743294.0;-265602.0;-142.14773953891813;-91.79384948410824;-42.03355567580802;-8454.53159475047;-416.6666666666667;-8037.8649280838035
0.12000000000000008;-2296511.0;-1278603.0;-298884.0;-179.75605604677227;-133.82740515991625;-37.013198379001864;-9402.079126963536;-666.6666666666666;-8735.41246029687
0.12400000000000008;-3209064.0;-1961965.0;-334546.0;-228.13820098732336;-170.84060353891812;-41.03186850785414;-12095.536235137772;-1083.3333333333333;-11012.202901804438
0.12800000000000009;-4365623.0;-2809454.0;-399610.0;-289.13966462582124;-211.87247204677226;-54.6282889405511;-15250.36590962447;-1333.3333333333333;-13917.032576291138
0.1320000000000001;-5811464.0;-3875457.0;-490166.0;-361.4602674951368;-266.50076098732336;-69.69483963849791;-18080.150717328892;-1750.0;-16330.150717328892
0.1360000000000001;-7582047.0;-5220239.0;-591225.0;-442.64575049781666;-336.19560062582127;-82.02226686931556;-20296.370750669965;-2083.3333333333335;-18213.037417336633
0.1400000000000001;-9702720.0;-6893110.0;-688937.0;-530.1682963229581;-418.21786749513683;-90.56583500267982;-21880.63645628536;-2666.6666666666665;-19213.96978961869
0.1440000000000001;-12190415.0;-8928244.0;-774476.0;-621.9235889851717;-508.78370249781665;-95.73428982514145;-22938.8231655534;-3250.0;-19688.8231655534
0.1480000000000001;-15056722.0;-11346315.0;-844100.0;-716.5768306387217;-604.5179923229581;-98.43919666221359;-23663.310413387506;-4000.0;-19663.310413387506
0.1520000000000001;-18309544.0;-14158143.0;-898579.0;-813.2053593746873;-702.9571889851717;-99.88322565355008;-24157.132183991394;-4750.0;-19407.132183991394
0.1560000000000001;-21953572.0;-17369504.0;-940040.0;-911.0070349199924;-802.8404146387218;-100.60878473596551;-24450.418886326275;-5500.0;-18950.418886326275
0.16000000000000011;-25990913.0;-20983300.0;-970272.0;-1009.3350790538099;-903.4491993746873;-100.70394754530514;-24582.011033454364;-6250.0;-18332.011033454364
0.16400000000000012;-30421988.0;-24999912.0;-991001.0;-1107.768672897896;-1004.1531469199924;-100.3180281338175;-24608.398461021552;-7083.333333333333;-17525.065127688216
0.16800000000000012;-35246419.0;-29417796.0;-1004192.0;-1206.1077236666652;-1104.47117505381;-99.69992984408623;-24584.76269219227;-7833.333333333333;-16751.42935885894
0.17200000000000013;-40463649.0;-34234480.0;-1011939.0;-1304.3075607019282;-1204.1711048978962;-99.08276276876904;-24549.95925881576;-8666.666666666666;-15883.292592149095
0.17600000000000013;-46073253.0;-39447495.0;-1016154.0;-1402.400825246548;-1303.2538676666652;-98.60447703526302;-24523.31613615496;-9416.666666666666;-15106.649469488295
0.18000000000000013;-52075009.0;-45054928.0;-1018325.0;-1500.4388273524257;-1401.8583447019282;-98.30168054461978;-24509.500526469423;-10166.666666666666;-14342.833859802759
0.18400000000000014;-58468854.0;-51055568.0;-1019441.0;-1598.4613650104602;-1500.160025246548;-98.14513810587778;-24505.63441450862;-10916.666666666666;-13588.967747841954
0.18800000000000014;-65254811.0;-57448788.0;-1020066.0;-1696.4890028858642;-1598.3051633524258;-98.08253765803443;-24506.909468851005;-11666.666666666666;-12840.24280218434
0.19200000000000014;-72432920.0;-64234338.0;-1020473.0;-1794.5272071894858;-1696.3877010104602;-98.06670987540406;-24509.551075905394;-12500.0;-12009.551075905392
0.19600000000000015;-80003215.0;-71412155.0;-1020765.0;-1892.5736479317345;-1794.4544108858643;-98.06623630362151;-24511.610185562175;-13250.0;-11261.610185562176
0.20000000000000015;-87965711.0;-78982237.0;-1020978.0;-1990.623993731502;-1892.5206471894858;-98.0668887422487;-24512.586449941864;-14083.333333333334;-10429.25311660853
0.20400000000000015;-96320411.0;-86944587.0;-1021124.0;-2088.674908016931;-1990.5875359317345;-98.06436179976731;-24512.728571357286;-14833.333333333334;-9679.395238023952
0.20800000000000016;-105067311.0;-95299194.0;-1021217.0;-2186.7248026383045;-2088.651897731502;-98.05984228542911;-24512.473655343343;-15583.333333333334;-8929.140322010007
0.21200000000000016;-114206405.0;-104046040.0;-1021271.0;-2284.7734287477488;-2186.711740016931;-98.05507862137347;-24512.156527361072;-16250.0;-8262.156527361072
0.21600000000000016;-123737690.0;-113185107.0;-1021298.0;-2382.8211779006124;-2284.7668186383044;-98.05121810944456;-24511.937288215904;-17083.333333333332;-7428.603954882572
0.22000000000000017;-133661165.0;-122716379.0;-1021311.0;-2480.8685476671035;-2382.818036747749;-98.04899715286365;-24511.842441622775;-17833.333333333332;-6678.509108289443
0.22400000000000017;-143976829.0;-132639847.0;-1021318.0;-2578.9158848594284;-2480.8670339006126;-98.04804176649077;-24511.834298081227;-18666.666666666668;-5845.167631414558
0.22800000000000017;-154684683.0;-142955507.0;-1021322.0;-2676.963341158977;-2578.9150756671033;-98.04772119232484;-24511.86407488717;-19333.333333333332;-5178.530741553839
0.23200000000000018;-165784727.0;-153663358.0;-1021325.0;-2775.010931323531;-2676.962796859428;-98.04774429954887;-24511.897541138525;-20166.666666666668;-4345.230874471856
0.23600000000000018;-177276962.0;-164763400.0;-1021327.0;-2873.0586097670566;-2775.010541158977;-98.04778216455406;-24511.919610881363;-20750.0;-3761.919610881364
0.24000000000000019;-189161388.0;-176255633.0;-1021329.0;-2971.1063246292847;-2873.058323323531;-98.04787044352543;-24511.92871555702;-21500.0;-3011.928715557019
0.2440000000000002;-201438004.0;-188140057.0;-1021331.0;-3069.154041779898;-2971.1061937670565;-98.04790686222805;-24511.92928765329;-22000.0;-2511.929287653288
0.2480000000000002;-214106812.0;-200416673.0;-1021331.0;-3167.2017474716567;-3069.1541006292846;-98.04771715061315;-24511.926422939723;-22500.0;-2011.9264229397231
0.25200000000000017;-227167810.0;-213085480.0;-1021332.0;-3265.2494414484204;-3167.2018177798977;-98.0478016917591;-24511.92349419091;-22916.666666666668;-1595.256827524242
0.25600000000000017;-240620123.0;-226146478.0;-1021332.0;-3363.0780010708504;-3265.249619471657;-98.04769397676364;-24457.139905607506;-23333.333333333332;-1123.806572274173
0.2600000000000002;-254460316.0;-239599667.0;-1020456.0;-3460.04812703779;-3363.2973134484205;-97.74446362242998;-24242.531491734895;-23833.333333333332;-409.19815840156207
0.2640000000000002;-268682219.0;-253443834.0;-1016482.0;-3555.475450559817;-3461.0417770708505;-96.58862196693963;-23856.83088050678;-24166.666666666668;309.83578615989063
0.2680000000000002;-283276081.0;-267674355.0;-1007864.0;-3648.4653147912118;-3557.63039903779;-94.5999955220268;-23247.46605784867;-24416.666666666668;1169.2006088179987
0.2720000000000002;-298225159.0;-282283276.0;-992805.0;-3737.2694402176326;-3652.230394559817;-91.54420023139483;-22201.0313566052;-24500.0;2298.968643394801
0.2760000000000002;-313505110.0;-297258374.0;-966785.0;-3819.9876078143284;-3743.7745947912117;-86.306205426421;-20679.541899173957;-24500.0;3820.4581008260448
0.2800000000000002;-329086652.0;-312578697.0;-926413.0;-3895.3852788422587;-3830.0808002176327;-78.8424555966958;-18849.417756982577;-24500.0;5650.582243017425
0.2840000000000002;-344936825.0;-328214390.0;-872262.0;-3962.542927739373;-3908.9232558143285;-70.19917502793032;-16789.412224278636;-24416.666666666668;7627.254442388033
0.2880000000000002;-361018955.0;-344130879.0;-805946.0;-4020.5323355027967;-3979.122430842259;-60.791312897114494;-14497.351940855879;-24250.0;9752.648059144121
0.2920000000000002;-377293956.0;-360290533.0;-728422.0;-4068.7501357666115;-4039.9137437393733;-50.547103763423365;-12054.450065953688;-24000.0;11945.549934046312
0.2960000000000002;-393722950.0;-376652376.0;-641580.0;-4107.248402494892;-4090.4608475027967;-39.88096826381525;-9624.566682070054;-23666.666666666668;14042.099984596614
0.3000000000000002;-410268488.0;-393173743.0;-549207.0;-4136.3842198013945;-4130.341815766612;-29.630458728279336;-7283.95432662569;-23333.333333333332;16049.379006707642
0.3040000000000002;-426896215.0;-409813632.0;-454856.0;-4156.93163316822;-4159.972274494891;-20.078121306502908;-5136.8533417064555;-22833.333333333332;17696.479991626875
0.3080000000000002;-443578777.0;-426533833.0;-362382.0;-4170.640105570929;-4180.050395801394;-11.669909366825777;-3427.118100677262;-22333.333333333332;18906.215232656068
0.3120000000000002;-460296609.0;-443300714.0;-278063.0;-4179.457834143631;-4191.72030516822;-5.613848402709664;-2204.4321431753815;-21666.666666666668;19462.234523491286
0.3160000000000002;-477035281.0;-460090050.0;-206559.0;-4184.667884066339;-4197.33415357093;-1.9533445727010985;-1302.5124806770236;-21000.0;19697.487519322975
0.32000000000000023;-493784164.0;-476887199.0;-148082.0;-4187.2205244843535;-4199.287498143631;0.4037420772920086;-638.1601045036405;-20250.0;19611.83989549636
0.32400000000000023;-510536390.0;-493682734.0;-101430.0;-4188.056389336992;-4198.883756066339;1.9259515819849184;-208.966213159556;-19500.0;19291.033786840446
0.32800000000000024;-527288386.0;-510470565.0;-65825.0;-4187.998740799932;-4196.957804484354;2.582215147362149;14.412134264830456;-18833.333333333332;18847.745467598164
0.33200000000000024;-544038911.0;-527248067.0;-40319.0;-4187.630938910529;-4194.375589336992;2.506224537059097;91.9504723508453;-18000.0;18091.950472350843
0.33600000000000024;-560788016.0;-544015544.0;-23367.0;-4187.276217332099;-4191.869364799933;1.9951938894037085;88.68039460753607;-17250.0;17338.680394607538
0.34000000000000025;-577536228.0;-560775040.0;-12976.0;-4187.052727095056;-4189.874170910529;1.3522575784299988;55.87255926070611;-16416.666666666668;16472.539225927372
0.34400000000000025;-594284063.0;-577529127.0;-7101.0;-4186.958476822476;-4188.521913332099;0.78749023704313;23.562568145052865;-15666.666666666666;15690.229234811719
0.34800000000000025;-611031846.0;-594280064.0;-3999.0;-4186.945657092329;-4187.734423095056;0.39204227257960156;3.2049325366187986;-14916.666666666666;14919.871599203285
0.35200000000000026;-627779712.0;-611029433.0;-2413.0;-4186.9662072405945;-4187.342380822476;0.165075730146782;-5.137537066275399;-14083.333333333334;14078.195796267059
0.35600000000000026;-644527672.0;-627778142.0;-1570.0;-4186.989783573226;-4187.177305092329;0.06037785173521115;-5.89408315795481;-13333.333333333334;13327.43925017538
0.36000000000000026;-661275689.0;-644526609.0;-1063.0;-4187.004198964737;-4187.116927240594;0.025095667368077557;-3.6038478776845295;-12500.0;12496.396152122315
0.36400000000000027;-678023725.0;-661274976.0;-713.0;-4187.008768747446;-4187.091831573226;0.019184608489013044;-1.1424456772601843;-11750.0;11748.85755432274
0.36800000000000027;-694771755.0;-678023266.0;-459.0;-4187.0073702688715;-4187.072646964737;0.01981421729124122;0.3496196436572063;-11083.333333333334;11083.682952976991
0.3720000000000003;-711519772.0;-694771477.0;-278.0;-4187.004027279004;-4187.052832747446;0.01877447857441439;0.8357474669082876;-10333.333333333334;10334.169080800242
0.3760000000000003;-728267778.0;-711519613.0;-159.0;-4187.001170122314;-4187.034058268871;0.014766989867894154;0.7142891724924993;-9500.0;9500.714289172492
0.3800000000000003;-745015777.0;-728267690.0;-88.0;-4186.999606404337;-4187.0192912790035;0.009673156690041651;0.3909294941877306;-8666.666666666666;8667.057596160854
0.3840000000000003;-761763775.0;-745015728.0;-49.0;-4186.999164199948;-4187.009618122313;0.005307717976393178;0.11055109735025326;-7916.666666666667;7916.777217764017
0.3880000000000003;-778511773.0;-761763745.0;-30.0;-4186.999341001662;-4187.004310404337;0.0022662043893433292;-0.04420042864694551;-7250.0;7249.955799571353
0.3920000000000003;-795259772.0;-778511753.0;-20.0;-4186.999695937326;-4187.002044199948;0.0007831982857169351;-0.088733915845296;-6500.0;6499.911266084155
0.3960000000000003;-812007773.0;-795259758.0;-14.0;-4186.999983872113;-4187.001261001662;0.00022106433607405052;-0.07198369689831452;-5666.666666666667;5666.594682969769
0.4000000000000003;-828755774.0;-812007762.0;-11.0;-4187.000133126867;-4187.001039937326;6.52125891065225e-08;-0.03731368838089111;-4916.666666666667;4916.629352978286
0.4040000000000003;-845503776.0;-828755766.0;-8.0;-4187.000169104106;-4187.001039872113;0.00013874524665880017;-0.00899430983736238;-4166.666666666667;4166.65767235683
0.4080000000000003;-862251777.0;-845503769.0;-7.0;-4187.00014601133;-4187.000901126867;6.002276040817378e-05;0.005773194061475806;-3500.0;3500.0057731940615
0.4120000000000003;-878999778.0;-862251772.0;-5.0;-4187.000108412747;-4187.000841104106;0.00021509277667064453;0.009399645705343573;-2833.3333333333335;2833.342732979039
0.4160000000000003;-895747779.0;-878999774.0;-4.0;-4187.000079666094;-4187.00062601133;0.0001335985825789976;0.007186663196989684;-2166.6666666666665;2166.6738533298635
0.4200000000000003;-912495781.0;-895747775.0;-4.0;-4187.000065585993;-4187.000492412747;2.8746652787958737e-05;0.0035200253023504047;-1666.6666666666667;1666.670186691969
0.4240000000000003;-929243782.0;-912495776.0;-5.0;-4187.0000627432255;-4187.000463666094;-8.191989854822168e-05;0.000710691892891191;-1166.6666666666667;1166.6673773585596
0.4280000000000003;-945991783.0;-929243778.0;-4.0;-4187.000065374648;-4187.000545585993;9.884276732918806e-05;-0.0006578557076863945;-833.3333333333334;833.3326754776257
0.43200000000000033;-962739784.0;-945991779.0;-4.0;-4187.000069043194;-4187.000446743225;-2.631422830745578e-06;-0.0009171365036308998;-416.6666666666667;416.66574953016305
0.43600000000000033;-979487785.0;-962739780.0;-4.0;-4187.0000715746455;-4187.000449374648;-3.6685460145235993e-06;-0.0006328627932816744;-250.0;249.99936713720672
0.44000000000000034;-996235786.0;-979487781.0;-4.0;-4187.000072546597;-4187.000453043194;-2.5314511731266975e-06;-0.0002429878804832697;0.0;-0.0002429878804832697
0.44400000000000034;-1012983787.0;-996235782.0;-4.0;-4187.000072399231;-4187.0004555746455;-9.719515219330788e-07;3.6841584005742334e-05;0.0;3.6841584005742334e-05
0.44800000000000034;-1029731788.0;-1012983783.0;-4.0;-4187.0000717448775;-4187.000456546597;1.4736633602296934e-07;0.00016358831089746673;83.33333333333333;-83.33316974502243
0.45200000000000035;-1046479789.0;-1029731784.0;-4.0;-4187.000071024818;-4187.000456399231;6.543532435898669e-07;0.00018001492207986303;83.33333333333333;-83.33315331841125
0.45600000000000035;-1063227790.0;-1046479785.0;-4.0;-4187.0000704403155;-4187.000455744877;7.200596883194521e-07;0.00014612555787607562;83.33333333333333;-83.33318720777545
0.46000000000000035;-1079975791.0;-1063227786.0;-4.0;-4187.000070017941;-4187.000455024818;5.845022315043025e-07;0.00010559369911788963;83.33333333333333;-83.33322773963421
0.46400000000000036;-1096723792.0;-1079975787.0;-4.0;-4187.000069704677;-4187.0004544403155;4.223747964715585e-07;7.831590664864052e-05;0.0;7.831590664864052e-05
0.46800000000000036;-1113471793.0;-1096723788.0;-4.0;-4187.000069436265;-4187.000454017941;3.132636265945621e-07;6.710297384415753e-05;0.0;6.710297384415753e-05
0.47200000000000036;-1130219795.0;-1113471789.0;-4.0;-4187.000069169266;-4187.000453704677;2.6841189537663013e-07;6.674986252619419e-05;0.0;6.674986252619419e-05
0.47600000000000037;-1146967796.0;-1130219790.0;-5.0;-4187.000068885401;-4187.000453436265;-9.573300030751852e-05;7.096627996361349e-05;0.0;7.096627996361349e-05
0.48000000000000037;-1163715797.0;-1146967792.0;-4.0;-4187.000068583633;-4187.0005491692655;9.628386487747775e-05;7.544190339103807e-05;0.0;7.544190339103807e-05
0.4840000000000004;-1180463798.0;-1163715793.0;-4.0;-4187.000068269741;-4187.000452885401;3.0176761356415227e-07;7.84730218583718e-05;0.0;7.84730218583718e-05
0.4880000000000004;-1197211799.0;-1180463794.0;-4.0;-4187.000067951328;-4187.000452583633;3.138920874334872e-07;7.96032963990001e-05;0.0;7.96032963990001e-05
0.4920000000000004;-1213959800.0;-1197211795.0;-4.0;-4187.000067631406;-4187.000452269741;3.184131855960004e-07;7.998050932656042e-05;0.0;7.998050932656042e-05
0.4960000000000004;-1230707801.0;-1213959796.0;-4.0;-4187.0000673123;-4187.000451951328;3.199220373062417e-07;7.97763277660124e-05;0.0;7.97763277660124e-05
0.5000000000000003;-1247455802.0;-1230707797.0;-4.0;-4187.000066994013;-4187.000451631406;3.191053110640496e-07;7.957191883178893e-05;0.0;7.957191883178893e-05
0.5040000000000003;-1264203803.0;-1247455798.0;-4.0;-4187.000066675598;-4187.0004513123;3.1828767532715574e-07;7.960375114635099e-05;0.0;7.960375114635099e-05
0.5080000000000003;-1280951804.0;-1264203799.0;-4.0;-4187.000066356682;-4187.000450994013;3.1841500458540395e-07;7.972903404152021e-05;0.0;7.972903404152021e-05
0.5120000000000003;-1297699805.0;-1280951800.0;-4.0;-4187.000066036823;-4187.000450675598;3.1891613616608083e-07;7.99645931692794e-05;0.0;7.99645931692794e-05
0.5160000000000003;-1314447806.0;-1297699801.0;-4.0;-4187.0000657153305;-4187.0004503566815;3.198583726771176e-07;8.037318366405088e-05;0.0;8.037318366405088e-05
0.5200000000000004;-1331195807.0;-1314447802.0;-4.0;-4187.000065392708;-4187.000450036823;3.2149273465620354e-07;8.065558176895138e-05;0.0;8.065558176895138e-05
0.5240000000000004;-1347943808.0;-1331195803.0;-4.0;-4187.000065069017;-4187.00044971533;3.226223270758055e-07;8.092274583759718e-05;0.0;8.092274583759718e-05
0.5280000000000004;-1364691809.0;-1347943804.0;-4.0;-4187.000064744258;-4187.000449392708;3.236909833503887e-07;8.118968253256753e-05;0.0;8.118968253256753e-05
0.5320000000000004;-1381439810.0;-1364691805.0;-4.0;-4187.000064418433;-4187.000449069017;3.247587301302701e-07;8.145639185386244e-05;0.0;8.145639185386244e-05
