Zeit[sec];Sollposition[°];Istposition[°];Positionsschleppfehler[°];Sollgeschwindigkeit[°/s];Istgeschwindigkeit[°/s];Geschwindigkeitsdifferenz[°/s];Sollbeschleunigung[°/s*s];Istbeschleunigung[°/s*s];Beschleunigungsdifferenz[°/s*s]
0.0;0.0;2.0;-2.0;-0.0;-0.000192;0.0;0.0;0.0;0.0
0.004;0.0;2.0;-2.0;-0.0;-0.000192;0.0;0.0;0.0;0.0
0.008;0.0;2.0;-2.0;-0.0;-0.000192;0.0;0.0;0.0;0.0
0.012;0.0;2.0;-2.0;-0.0;-0.000192;0.0;0.0;0.0;0.0
0.016;0.0;2.0;-2.0;-0.0;-0.000192;0.0;0.0;0.0;0.0
0.02;0.0;2.0;-2.0;-0.0;-0.000192;0.0;0.0;0.0;0.0
0.024;0.0;2.0;-2.0;-0.0;-0.000192;0.0;0.0;0.0;0.0
0.028;0.0;2.0;-2.0;-0.0;-0.000192;0.0;0.0;0.0;0.0
0.032;0.0;2.0;-2.0;-0.0;-0.000192;0.0;0.0;0.0;0.0
0.036000000000000004;0.0;2.0;-2.0;-0.0;-0.000192;0.0;0.0;0.0;0.0
0.04000000000000001;0.0;2.0;-2.0;-0.0;-0.000192;0.0;0.0;0.0;0.0
0.04400000000000001;0.0;2.0;-2.0;-0.0;-0.000192;0.0;0.0;0.0;0.0
0.048000000000000015;0.0;2.0;-2.0;-0.0;-0.000192;0.0;0.0;0.0;0.0
0.05200000000000002;0.0;2.0;-2.0;-0.0;-0.000192;0.0;0.0;0.0;0.0
0.05600000000000002;0.0;2.0;-2.0;-0.0;-0.000192;0.0;0.0;0.0;0.0
0.060000000000000026;0.0;2.0;-2.0;-0.0;-0.000192;0.0;0.0;0.0;0.0
0.06400000000000003;0.0;2.0;-2.0;-0.0;-0.000192;0.0;0.0;0.0;0.0
0.06800000000000003;0.0;2.0;-2.0;-0.0;-0.000192;0.0;0.0;0.0;0.0
0.07200000000000004;0.0;2.0;-2.0;-0.0;-0.000192;0.0;0.0;0.0;0.0
0.07600000000000004;0.0;2.0;-2.0;-0.0;-0.000192;0.0;0.0;0.0;0.0
0.08000000000000004;0.0;2.0;-2.0;-0.0;-0.000192;0.0;0.0;0.0;0.0
0.08400000000000005;-489.0;2.0;-2.0;-0.12249258112636338;-0.000192;0.0;-30.623145281590844;0.0;-30.623145281590844
0.08800000000000005;-5372.0;2.0;-491.0;-1.2207209932042338;-0.000192;-0.1694365811263634;-274.5571030194676;0.0;-274.5571030194676
0.09200000000000005;-124556.0;-676.0;-4696.0;-29.795900583685725;-0.1696285811263634;-1.5019084120778703;-7143.7948976203725;0.0;-7143.7948976203725
0.09600000000000006;-380100.0;-7362.0;-117194.0;-63.88612387970694;-1.6715369932042337;-39.37498759048149;-8522.555824005305;0.0;-8522.555824005305
0.10000000000000006;-892333.0;-171548.0;-208552.0;-128.0580930681992;-41.04652458368572;-42.86059129602121;-16042.992297123068;-83.33333333333333;-15959.658963789734
0.10400000000000006;-1681804.0;-507176.0;-385157.0;-197.367792851138;-83.90711587970694;-81.12604918849229;-17327.4249457347;-250.0;-17077.4249457347
0.10800000000000007;-2773271.0;-1167308.0;-514496.0;-272.8668355987327;-165.03316506819922;-81.72624378293878;-18874.76068689867;-750.0;-18124.76068689867
0.11200000000000007;-4286937.0;-2154345.0;-618926.0;-378.4163735022032;-246.759408851138;-85.52432274759468;-26387.384475867635;-1250.0;-25137.384475867635
0.11600000000000008;-6387523.0;-3483479.0;-803458.0;-525.1465849129036;-332.2837315987327;-123.26460990347056;-36682.552852675086;-2000.0;-34682.552852675086
0.12000000000000008;-9224847.0;-5305672.0;-1081851.0;-709.3308708963009;-455.54834150220324;-173.45593941070035;-46046.07149584933;-2666.6666666666665;-43379.40482918267
0.12400000000000008;-12922944.0;-7821689.0;-1403158.0;-924.5240580779326;-629.0042809129036;-215.0297579833973;-53798.296795407936;-3750.0;-50048.296795407936
0.12800000000000009;-17588014.0;-11197825.0;-1725119.0;-1166.267497194991;-844.0340388963009;-246.1014431816318;-60435.859779264574;-5000.0;-55435.859779264574
0.1320000000000001;-23311478.0;-15558366.0;-2029648.0;-1430.8659097050822;-1090.1354820779327;-270.9782231170582;-66149.60312752283;-6666.666666666667;-59482.93646085616
0.1360000000000001;-30160344.0;-21002820.0;-2308658.0;-1712.2164646244644;-1361.1137051949909;-291.38337251009125;-70337.63872984554;-8583.333333333334;-61754.3053965122
0.1400000000000001;-38174532.0;-27612808.0;-2547536.0;-2003.5470151516888;-1652.4970777050821;-304.28284291938235;-72832.63763180611;-10666.666666666666;-62165.970965139444
0.1440000000000001;-47368297.0;-35439927.0;-2734605.0;-2298.4411125798983;-1956.7799206244645;-309.28917452722453;-73723.52435705239;-12916.666666666666;-60806.85769038572
0.1480000000000001;-57721616.0;-44504203.0;-2864094.0;-2588.3296219972904;-2266.069095151689;-307.32504142820926;-72472.127354348;-15250.0;-57222.127354348006
0.1520000000000001;-69179556.0;-54797779.0;-2923837.0;-2864.4849331844503;-2573.3941365798983;-295.6238374173922;-69038.82779678998;-17750.0;-51288.82779678998
0.1560000000000001;-81662985.0;-66273850.0;-2905706.0;-3120.857085846077;-2869.0179739972905;-274.41473518715975;-64093.03816540671;-20083.333333333332;-44009.70483207338
0.16000000000000011;-95074410.0;-78847580.0;-2815405.0;-3352.855979782364;-3143.4327091844502;-247.7032566616267;-57999.72348407175;-22333.333333333332;-35666.39015073842
0.16400000000000012;-109299875.0;-92412123.0;-2662287.0;-3556.366011846041;-3391.135965846077;-217.2995659362873;-50877.50801591926;-24416.666666666668;-26460.841349252594
0.16800000000000012;-124214300.0;-106845865.0;-2454010.0;-3728.606244817746;-3608.4355317823643;-183.51544006367703;-43060.05824292618;-26416.666666666668;-16643.391576259506
0.17200000000000013;-139689195.0;-122013668.0;-2200632.0;-3868.723584541751;-3791.9509718460413;-147.91594497170445;-35029.33493100124;-28166.666666666668;-6862.668264334577
0.17600000000000013;-155596809.0;-137773135.0;-1916060.0;-3976.9032538489937;-3939.8669168177457;-112.79842772400525;-27044.91732681072;-29583.333333333332;2538.4160065226133
0.18000000000000013;-171817524.0;-153983796.0;-1613013.0;-4055.1785445338637;-4052.665344541751;-79.08715730724316;-19568.822671217502;-30666.666666666668;11097.843995449164
0.18400000000000014;-188253901.0;-170510806.0;-1306718.0;-4109.094004138441;-4131.752501848994;-48.87097068486946;-13478.864901144334;-31583.333333333332;18104.468432188998
0.18800000000000014;-204833416.0;-187233299.0;-1020602.0;-4144.878650638838;-4180.623472533864;-26.448323604577126;-8946.161625099194;-32166.666666666668;23220.505041567474
0.19200000000000014;-221500350.0;-204061586.0;-771830.0;-4166.733280470219;-4207.071796138441;-11.90253450039745;-5463.657457845329;-32666.666666666668;27203.00920882134
0.19600000000000015;-238212853.0;-220937483.0;-562867.0;-4178.125460420131;-4218.974330638838;-1.7941818313811382;-2848.0449874780334;-32833.333333333336;29985.288345855304
0.20000000000000015;-254943443.0;-237820557.0;-392296.0;-4182.647340557265;-4220.768512470219;4.982636050088331;-1130.4700342834622;-32916.666666666664;31786.196632383202
0.20400000000000015;-271677023.0;-254683700.0;-259743.0;-4183.39474873874;-4215.785876420131;8.203207862866293;-186.85204536882338;-32916.666666666664;32729.81462129784
0.20800000000000016;-288407307.0;-271514030.0;-162993.0;-4182.5709301152765;-4207.582668557265;8.540591818524263;205.95465586598038;-32916.666666666664;33122.62132253264
0.21200000000000016;-305133204.0;-288310198.0;-97109.0;-4181.474077001339;-4199.04207673874;7.148682623464083;274.2132784844671;-32916.666666666664;33190.87994515113
0.21600000000000016;-321855889.0;-305077771.0;-55433.0;-4180.670842817045;-4191.893394115276;5.097749113937425;200.8085460734037;-32833.333333333336;33034.14187940674
0.22000000000000017;-338576950.0;-321824953.0;-30936.0;-4180.265147158882;-4186.795645001339;3.1549461842942037;101.42391454064636;-32750.0;32851.42391454065
0.22400000000000017;-355297553.0;-338559515.0;-17435.0;-4180.150455468005;-4183.640698817045;1.7017916581626196;28.672922719351845;-32666.666666666668;32695.33958938602
0.22800000000000017;-372018272.0;-355287270.0;-10283.0;-4180.17970019587;-4181.938907158882;0.8012836908774261;-7.3111819663154165;-32583.333333333332;32576.02215136702
0.23200000000000018;-388739253.0;-372011820.0;-6452.0;-4180.245130794885;-4181.137623468005;0.3385312721347873;-16.357649753672376;-32333.333333333332;32316.975683579658
0.23600000000000018;-405460432.0;-388735016.0;-4237.0;-4180.294333166537;-4180.79909219587;0.14720940098504798;-12.300592913106811;-31916.666666666668;31904.36607375356
0.24000000000000019;-422181694.0;-405457623.0;-2809.0;-4180.315506153905;-4180.651882794885;0.08788562834706681;-5.293246841802102;-31333.333333333332;31328.04008649153
0.2440000000000002;-438902961.0;-422179878.0;-1816.0;-4180.316367549652;-4180.563997166538;0.07415501263312763;-0.21534893676289357;-30750.0;30749.784651063237
0.2480000000000002;-455624196.0;-438901837.0;-1124.0;-4180.308640112872;-4180.489842153905;0.06557060425257077;1.9318591948831454;-30000.0;30001.931859194883
0.25200000000000017;-472345399.0;-455623534.0;-662.0;-4180.300656696643;-4180.424271549652;0.05207943678033189;1.9958540572133643;-29000.0;29001.99585405721
0.25600000000000017;-489066584.0;-472345022.0;-377.0;-4180.29594969577;-4180.372192112872;0.035343416228897695;1.1767502182919998;-27583.333333333332;27584.510083551624
0.2600000000000002;-505787764.0;-489066369.0;-215.0;-4180.294677726199;-4180.336848696643;0.020259000873011246;0.3179923928655626;-26000.0;26000.317992392866
0.2640000000000002;-522508947.0;-505787635.0;-129.0;-4180.295565076318;-4180.31658969577;0.009527969571536232;-0.2218375298070896;-24083.333333333332;24083.111495803525
0.2680000000000002;-539230136.0;-522508863.0;-84.0;-4180.297255459695;-4180.307061726198;0.0034326498807786265;-0.42259584438397724;-22000.0;21999.577404155614
0.2720000000000002;-555951333.0;-539230077.0;-59.0;-4180.2988888760065;-4180.3036290763175;0.0007096166218616418;-0.4083540777628514;-19666.666666666668;19666.258312588907
0.2760000000000002;-572672534.0;-555951288.0;-45.0;-4180.300138389347;-4180.302919459696;-0.0002894163108067005;-0.31237833513841906;-17333.333333333332;17333.020954998196
0.2800000000000002;-589393739.0;-572672500.0;-34.0;-4180.301016306646;-4180.3032088760065;-0.00019351334049133584;-0.21947932464172482;-14916.666666666666;14916.447187342024
0.2840000000000002;-606114946.0;-589393713.0;-26.0;-4180.30166441824;-4180.303402389347;-0.00010991729868692346;-0.16202789856833988;-12583.333333333334;12583.171305434766
0.2880000000000002;-622836156.0;-606114927.0;-19.0;-4180.302220124145;-4180.303512306646;2.388840584899299e-05;-0.13892647621105425;-10333.333333333334;10333.194406857123
0.2920000000000002;-639557368.0;-622836140.0;-16.0;-4180.302765158781;-4180.30348841824;-0.0002677059046618524;-0.13625865904032253;-8166.666666666667;8166.530408007627
0.2960000000000002;-656278582.0;-639557355.0;-13.0;-4180.303327154793;-4180.3037561241445;-0.0002570346359789255;-0.14049900300960871;-6250.0;6249.85950099699
0.3000000000000002;-672999798.0;-656278571.0;-11.0;-4180.30390150956;-4180.30401315878;-0.00036999601252318826;-0.14358869179886824;-4500.0;4499.856411308201
0.3040000000000002;-689721017.0;-672999788.0;-10.0;-4180.304472695325;-4180.304383154793;-0.00047835476743784966;-0.14279644119596924;-3166.6666666666665;3166.5238702254705
0.3080000000000002;-706442238.0;-689721007.0;-10.0;-4180.305026975559;-4180.30486150956;-0.000571185764783877;-0.13857005842510262;-2000.0;1999.861429941575
0.3120000000000002;-723163461.0;-706442228.0;-10.0;-4180.3055567264155;-4180.305432695325;-0.0005542802337004105;-0.13243771422821737;-1083.3333333333333;1083.200895619105
0.3160000000000002;-739884686.0;-723163451.0;-10.0;-4180.306059737871;-4180.305986975559;-0.0005297508569128695;-0.1257528638234362;-416.6666666666667;416.54091380284325
0.32000000000000023;-756605913.0;-739884677.0;-9.0;-4180.306536807124;-4180.306516726416;-0.0004070114546266268;-0.11926731326639128;-83.33333333333333;83.21406602006694
0.32400000000000023;-773327142.0;-756605904.0;-9.0;-4180.306989601999;-4180.30692373787;-0.00047706925306556514;-0.11319871873638476;166.66666666666666;-166.77986538540304
0.32800000000000024;-790048372.0;-773327133.0;-9.0;-4180.307419472728;-4180.3074008071235;-0.00045279487494553905;-0.10746768225544656;250.0;-250.10746768225545
0.33200000000000024;-806769604.0;-790048364.0;-8.0;-4180.307827106641;-4180.307853601998;-0.00033387072926416295;-0.10190847820013005;333.3333333333333;-333.43524181153344
0.33600000000000024;-823490838.0;-806769596.0;-8.0;-4180.308212652423;-4180.308187472728;-0.0004076339128005202;-0.09638644564802235;250.0;-250.09638644564802
0.34000000000000025;-840212073.0;-823490830.0;-8.0;-4180.308575981428;-4180.3085951066405;-0.0003855457825920894;-0.0908322510895232;166.66666666666666;-166.75749891775618
0.34400000000000025;-856933310.0;-840212065.0;-8.0;-4180.30891690078;-4180.308980652423;-0.0003633290043580928;-0.08522983807779383;166.66666666666666;-166.75189650474445
0.34800000000000025;-873654547.0;-856933302.0;-8.0;-4180.309235263519;-4180.309343981427;-0.0003409193523111753;-0.07959068489071797;83.33333333333333;-83.41292401822405
0.35200000000000026;-890375786.0;-873654540.0;-7.0;-4180.309530994897;-4180.30968490078;-0.00022236273980524857;-0.07393284431600478;83.33333333333333;-83.40726617764933
0.35600000000000026;-907097026.0;-890375779.0;-7.0;-4180.309804073869;-4180.30990726352;-0.0002957313772640191;-0.06826974299656285;0.0;-0.06826974299656285
0.36000000000000026;-923818267.0;-907097019.0;-7.0;-4180.310054507092;-4180.310202994897;-0.0002730789719862514;-0.0626083058250515;0.0;-0.0626083058250515
0.36400000000000027;-940539509.0;-923818260.0;-7.0;-4180.310282306253;-4180.310476073869;-0.000250433223300206;-0.05694979017789592;0.0;-0.05694979017789592
0.36800000000000027;-957260752.0;-940539502.0;-7.0;-4180.310487478605;-4180.310726507092;-0.00022779916071158368;-0.051293088063175674;0.0;-0.051293088063175674
0.3720000000000003;-973981995.0;-957260745.0;-7.0;-4180.310670025625;-4180.310954306253;-0.0002051723522527027;-0.04563675497593067;0.0;-0.04563675497593067
0.3760000000000003;-990703240.0;-973981989.0;-6.0;-4180.310829944265;-4180.311159478605;-8.654702014609938e-05;-0.03997965995949926;0.0;-0.03997965995949926
0.3800000000000003;-1007424484.0;-990703233.0;-7.0;-4180.310967230884;-4180.311246025625;-0.00025591863959562033;-0.03432165476624505;0.0;-0.03432165476624505
0.3840000000000003;-1024145729.0;-1007424479.0;-5.0;-4180.311081882779;-4180.311501944265;5.4713381359761115e-05;-0.028662973818427417;0.0;-0.028662973818427417
0.3880000000000003;-1040866975.0;-1024145724.0;-5.0;-4180.3111738986945;-4180.3114472308835;-0.00011465189527370967;-0.023003978867564;0.0;-0.023003978867564
0.3920000000000003;-1057588221.0;-1040866970.0;-5.0;-4180.311243279951;-4180.311561882779;-9.2015915470256e-05;-0.01734531406327733;0.0;-0.01734531406327733
0.3960000000000003;-1074309467.0;-1057588216.0;-5.0;-4180.311290029497;-4180.311653898694;-6.938125625310931e-05;-0.011687386631820118;0.0;-0.011687386631820118
0.4000000000000003;-1091030713.0;-1074309462.0;-5.0;-4180.311314151357;-4180.3117232799505;-4.674954652728047e-05;-0.006030464874129393;0.0;-0.006030464874129393
0.4040000000000003;-1107751959.0;-1091030709.0;-4.0;-4180.311315651214;-4180.311770029497;7.187814026110573e-05;-0.0003749642019101884;0.0;-0.0003749642019101884
0.4080000000000003;-1124473205.0;-1107751955.0;-4.0;-4180.311294535506;-4180.311698151357;-1.4998568076407537e-06;0.005278926892060554;0.0;0.005278926892060554
0.4120000000000003;-1141194450.0;-1124473201.0;-4.0;-4180.311250811959;-4180.3116996512135;2.1115707568242215e-05;0.010930886674032081;0.0;0.010930886674032081
0.4160000000000003;-1157915696.0;-1141194447.0;-3.0;-4180.311184490155;-4180.311678535506;0.00013972354645375162;0.016580451074332814;0.0;0.016580451074332814
0.4200000000000003;-1174636941.0;-1157915693.0;-3.0;-4180.311095579766;-4180.3115388119595;6.632180429733125e-05;0.022227597355595208;0.0;0.022227597355595208
0.4240000000000003;-1191358186.0;-1174636938.0;-3.0;-4180.310984092444;-4180.311472490155;8.891038942238083e-05;0.027871830297954148;0.0;0.027871830297954148
0.4280000000000003;-1208079430.0;-1191358183.0;-3.0;-4180.310850040313;-4180.311383579766;0.00011148732119181659;0.03351303280396678;0.0;0.03351303280396678
0.43200000000000033;-1224800674.0;-1208079428.0;-2.0;-4180.310693438449;-4180.311272092445;0.00023005213097349042;0.03915046613656159;0.0;0.03915046613656159
0.43600000000000033;-1241521916.0;-1224800672.0;-2.0;-4180.310514300671;-4180.311042040314;0.00015660186454624636;0.04478444452615804;0.0;0.04478444452615804
0.44000000000000034;-1258243158.0;-1241521915.0;-1.0;-4180.310312644253;-4180.310885438449;0.00027513777877175016;0.0504141044075368;0.0;0.0504141044075368
0.44400000000000034;-1274964400.0;-1258243157.0;-1.0;-4180.31008848647;-4180.31061030067;0.0002016564176301472;0.05603944578069786;0.0;0.05603944578069786
0.44800000000000034;-1291685640.0;-1274964398.0;-2.0;-4180.309841846106;-4180.310408644253;0.00012815778245567344;0.06166009097796632;0.0;0.06166009097796632
0.45200000000000035;-1308406879.0;-1291685639.0;-1.0;-4180.309572743384;-4180.31028048647;0.0003426403645789833;0.0672756805215613;0.0;0.0672756805215613
0.45600000000000035;-1325127297.0;-1308406878.0;-1.0;-4180.104244170999;-4180.309937846106;0.0002691027220862452;51.33214309626055;0.0;51.33214309626055
0.46000000000000035;-1341843590.0;-1325128116.0;819.0;-4179.073054148876;-4180.309668743384;0.28404857238456316;257.79750553078884;0.0;257.79750553078884
0.46400000000000036;-1358549535.0;-1341848218.0;4628.0;-4176.486070674225;-4180.025620170999;1.3968540221230796;646.7458686627197;0.0;646.7458686627197
0.46800000000000036;-1375230512.0;-1358562733.0;13198.0;-4170.244011290306;-4178.628766148876;3.409703474650996;1560.5148459796965;0.0;1560.5148459796965
0.47200000000000036;-1391851089.0;-1375263609.0;33097.0;-4155.1442410497575;-4175.219062674225;8.152363383918782;3774.942560137106;0.0;3774.942560137106
0.47600000000000037;-1408351659.0;-1391931875.0;80786.0;-4125.142124076302;-4167.066699290306;19.67791424054849;7500.5292433638715;83.33333333333333;7417.1959100305385
0.48000000000000037;-1424651921.0;-1408521430.0;169771.0;-4075.065353837333;-4147.388785049758;38.54467697345535;12519.192559742238;166.66666666666666;12352.52589307557
0.4840000000000004;-1440648072.0;-1424956806.0;304885.0;-3999.0375360574794;-4108.844108076302;63.04771423896909;19006.954444963412;333.3333333333333;18673.62111163008
0.4880000000000004;-1456255012.0;-1441139991.0;491919.0;-3901.7347724912443;-4045.796393837333;93.98308177985382;24325.690891558792;583.3333333333334;23742.35755822546
0.4920000000000004;-1471280375.0;-1456947244.0;692232.0;-3756.340813676488;-3951.8133120574794;116.53281156623507;36348.4897036891;1083.3333333333333;35265.15637035576
0.4960000000000004;-1485660708.0;-1472288366.0;1007991.0;-3595.082897065528;-3835.2805004912443;175.70682281475638;40314.47915273998;1833.3333333333333;38481.14581940664
0.5000000000000003;-1499248053.0;-1486926660.0;1265952.0;-3396.836261621141;-3659.573677676488;186.02217261095984;49561.6588610967;2833.3333333333335;46728.32552776337
0.5040000000000003;-1511913155.0;-1500820866.0;1572813.0;-3166.275237289292;-3473.551505065528;227.70529144438706;57640.25608296231;4166.666666666667;53473.58941629564
0.5080000000000003;-1523536112.0;-1513804250.0;1891095.0;-2905.739051275592;-3245.846213621141;261.1160963318489;65134.046503424994;5666.666666666667;59467.37983675833
0.5120000000000003;-1534029756.0;-1525743170.0;2207058.0;-2623.410955745686;-2984.730117289292;290.8686340137001;70582.02388247651;7416.666666666667;63165.35721580984
0.5160000000000003;-1543333037.0;-1536518615.0;2488859.0;-2325.8202176484756;-2693.861483275592;309.38099152990617;74397.68452430257;9416.666666666666;64981.01785763591
0.5200000000000004;-1551419709.0;-1546056536.0;2723499.0;-2021.6677242663757;-2384.480491745686;320.1161780972102;76038.12334552497;11666.666666666666;64371.45667885831
0.5240000000000004;-1558300922.0;-1554313993.0;2894284.0;-1720.3032142023371;-2064.3643136484757;320.54785338210013;75341.12751600964;14083.333333333334;61257.7941826763
0.5280000000000004;-1564018692.0;-1561289258.0;2988336.0;-1429.4424678920268;-1743.8164602663755;310.39350206403833;72715.18657757758;16500.0;56215.18657757758
0.5320000000000004;-1568644233.0;-1567022949.0;3004257.0;-1156.3851862848994;-1433.4229582023372;292.38916231031044;68264.32040178185;19000.0;49264.32040178184
