Zeit[sec];Sollposition[°];Istposition[°];Positionsschleppfehler[°];Sollgeschwindigkeit[°/s];Istgeschwindigkeit[°/s];Geschwindigkeitsdifferenz[°/s];Sollbeschleunigung[°/s*s];Istbeschleunigung[°/s*s];Beschleunigungsdifferenz[°/s*s]
0.0;0.0;4.0;-4.0;-0.0;-0.00023999999999999998;0.0;0.0;0.0;0.0
0.004;0.0;4.0;-4.0;-0.0;-0.00023999999999999998;0.0;0.0;0.0;0.0
0.008;0.0;4.0;-4.0;-0.0;-0.00023999999999999998;0.0;0.0;0.0;0.0
0.012;0.0;4.0;-4.0;-0.0;-0.00023999999999999998;0.0;0.0;0.0;0.0
0.016;0.0;4.0;-4.0;-0.0;-0.00023999999999999998;0.0;0.0;0.0;0.0
0.02;0.0;4.0;-4.0;-0.0;-0.00023999999999999998;0.0;0.0;0.0;0.0
0.024;0.0;4.0;-4.0;-0.0;-0.00023999999999999998;0.0;0.0;0.0;0.0
0.028;0.0;4.0;-4.0;-0.0;-0.00023999999999999998;0.0;0.0;0.0;0.0
0.032;0.0;4.0;-4.0;-0.0;-0.00023999999999999998;0.0;0.0;0.0;0.0
0.036000000000000004;0.0;4.0;-4.0;-0.0;-0.00023999999999999998;0.0;0.0;0.0;0.0
0.04000000000000001;0.0;4.0;-4.0;-0.0;-0.00023999999999999998;0.0;0.0;0.0;0.0
0.04400000000000001;0.0;4.0;-4.0;-0.0;-0.00023999999999999998;0.0;0.0;0.0;0.0
0.048000000000000015;0.0;4.0;-4.0;-0.0;-0.00023999999999999998;0.0;0.0;0.0;0.0
0.05200000000000002;0.0;4.0;-4.0;-0.0;-0.00023999999999999998;0.0;0.0;0.0;0.0
0.05600000000000002;-252.0;4.0;-4.0;-0.0630667140370379;-0.00023999999999999998;0.0;-15.766678509259474;0.0;-15.766678509259474
0.060000000000000026;-2766.0;4.0;-256.0;-0.628502241437792;-0.00023999999999999998;-0.07818671403703789;-141.3588818501885;0.0;-141.3588818501885
0.06400000000000003;-15123.0;-309.0;-2457.0;-3.089215963494595;-0.0784267140370379;-0.697495527400754;-615.1784305142007;0.0;-615.1784305142007
0.06800000000000003;-55966.0;-3412.0;-11711.0;-10.210912098550901;-0.775922241437792;-3.015953722056803;-1780.4240337640765;0.0;-1780.4240337640765
0.07200000000000004;-159580.0;-18579.0;-37387.0;-25.90338655279852;-3.791875963494595;-8.662256135056305;-3923.1186135619046;0.0;-3923.1186135619046
0.07600000000000004;-376286.0;-68395.0;-91185.0;-54.176569519243046;-12.4541320985509;-18.92035445424762;-7068.295741611131;0.0;-7068.295741611131
0.08000000000000004;-767692.0;-193892.0;-182394.0;-97.85151056038654;-31.37448655279852;-33.74572296644453;-10918.735260285874;-83.33333333333333;-10835.401926952542
0.08400000000000005;-1400545.0;-454372.0;-313320.0;-158.21330824663278;-65.12020951924305;-51.530501041143495;-15090.449421561558;-250.0;-14840.449421561558
0.08800000000000005;-2343617.0;-920974.0;-479571.0;-235.76780454464338;-116.65071056038654;-70.33685768624623;-19388.62407450265;-583.3333333333334;-18805.29074116932
0.09200000000000005;-3666912.0;-1668924.0;-674693.0;-330.8237443029353;-186.98756824663278;-89.26181629801059;-23763.984939572987;-1000.0;-22763.984939572987
0.09600000000000006;-5439472.0;-2773921.0;-892991.0;-443.13992880181553;-276.24938454464336;-108.15381975829195;-28079.04612472005;-1500.0;-26579.04612472005
0.10000000000000006;-7724957.0;-4311533.0;-1127939.0;-571.3713068673978;-384.4032043029353;-126.4130644988802;-32057.844516395577;-2166.6666666666665;-29891.17784972891
0.10400000000000006;-10577571.0;-6354798.0;-1370159.0;-713.1534072546613;-510.8162688018155;-142.76457806558227;-35445.52509681586;-3000.0;-32445.525096815858
0.10800000000000007;-14039581.0;-8969121.0;-1608450.0;-865.5024785893229;-653.5808468673978;-156.07956038726343;-38087.267833665406;-4083.3333333333335;-34003.93450033208
0.11200000000000007;-18139944.0;-12207762.0;-1831819.0;-1025.0908246549877;-809.6604072546612;-165.75121133466166;-39897.08651641621;-5166.666666666667;-34730.419849749545
0.11600000000000008;-22894717.0;-16109408.0;-2030536.0;-1188.6931781599535;-975.4116185893229;-171.5113660656648;-40900.588376241445;-6333.333333333333;-34567.25504290811
0.12000000000000008;-28309922.0;-20697099.0;-2197618.0;-1353.8011185488665;-1146.9229846549877;-173.62727350496584;-41276.98509722825;-7583.333333333333;-33693.651763894915
0.12400000000000008;-34385651.0;-25979300.0;-2330622.0;-1518.9322981485345;-1320.5502581599535;-173.08818038891286;-41282.794899917004;-8916.666666666666;-32366.12823325034
0.12800000000000009;-41119669.0;-31953853.0;-2431798.0;-1683.504295413468;-1493.6384385488664;-171.20173959966814;-41142.999316233385;-10333.333333333334;-30809.665982900053
0.1320000000000001;-48509647.0;-38613213.0;-2506456.0;-1847.4945009169983;-1664.8401781485345;-169.0514772649335;-40997.551375882555;-11666.666666666666;-29330.884709215887
0.1360000000000001;-56554081.0;-45948779.0;-2560868.0;-2011.1083451340708;-1833.891655413468;-167.25492550353033;-40903.46105426812;-13000.0;-27903.461054268122
0.1400000000000001;-65252340.0;-53953365.0;-2600716.0;-2174.5645693643396;-2001.1465809169983;-166.0047242170724;-40864.05605756721;-14333.333333333334;-26530.722724233878
0.1440000000000001;-74604361.0;-62621970.0;-2630370.0;-2338.0053003494468;-2167.1513051340708;-165.23546423026892;-40860.18274627679;-15666.666666666666;-25193.516079610126
0.1480000000000001;-84610319.0;-71951517.0;-2652844.0;-2501.4893532298497;-2332.3867693643397;-164.78917098510692;-40871.013220100736;-17000.0;-23871.013220100736
0.1520000000000001;-95270404.0;-81940220.0;-2670099.0;-2665.0211391030102;-2497.1759403494466;-164.51935288040295;-40882.94646829013;-18250.0;-22632.94646829013
0.1560000000000001;-106584736.0;-92587001.0;-2683403.0;-2828.582697361203;-2661.6952932298495;-164.3300258731606;-40890.389564548175;-19500.0;-21390.38956454817
0.16000000000000011;-118553355.0;-103891102.0;-2693634.0;-2992.1547251122433;-2826.02531910301;-164.17541825819262;-40893.0069377601;-20750.0;-20143.006937760107
0.16400000000000012;-131176233.0;-115851904.0;-2701451.0;-3155.7192409249888;-2990.2007373612028;-164.04104775104042;-40891.12895318635;-22083.333333333332;-18807.795619853023
0.16800000000000012;-144453191.0;-128468871.0;-2707362.0;-3319.2393538521437;-3154.241785112243;-163.91917581274538;-40880.02823178874;-23333.333333333332;-17546.69489845541
0.17200000000000013;-158383740.0;-141741514.0;-2711677.0;-3482.6372171573366;-3318.1609609249886;-163.77901292715524;-40849.46582629823;-24666.666666666668;-16182.79915963156
0.17600000000000013;-172966279.0;-155669273.0;-2714467.0;-3645.634635193856;-3481.939973852144;-163.56526330519273;-40749.35450912983;-25916.666666666668;-14832.687842463161
0.18000000000000013;-188195091.0;-170251293.0;-2714986.0;-3807.202674279137;-3645.5052371573365;-163.02855803651937;-40392.009771320314;-27250.0;-13142.009771320318
0.18400000000000014;-204055280.0;-185485428.0;-2709663.0;-3965.0471276484814;-3808.533795193856;-161.24865908528136;-39461.11334233604;-28500.0;-10961.113342336033
0.18800000000000014;-220518872.0;-201364557.0;-2690723.0;-4115.897885505711;-3969.7824542791373;-156.70805336934382;-37712.68946430746;-29750.0;-7962.689464307459
0.19200000000000014;-237544046.0;-217870519.0;-2648353.0;-4256.293106740701;-4126.490507648481;-148.30855785722997;-35098.80530874739;-31000.0;-4098.805308747387
0.19600000000000015;-255076522.0;-234969715.0;-2574331.0;-4383.11889540859;-4274.799065505711;-135.95390123498964;-31706.44716697234;-32166.666666666668;460.219499694329
0.20000000000000015;-273052194.0;-252612726.0;-2463796.0;-4493.917809694186;-4410.752966740701;-120.19368866788955;-27699.728571398962;-33333.333333333336;5633.604761934372
0.20400000000000015;-291400625.0;-270736512.0;-2315682.0;-4587.107600214932;-4530.94665540859;-101.91207428559574;-23297.447630186525;-34333.333333333336;11035.88570314681
0.20800000000000016;-310048517.0;-289267946.0;-2132679.0;-4661.9727196575295;-4632.858729694186;-82.20961052074563;-18716.279860649367;-35250.0;16533.720139350633
0.21200000000000016;-328922860.0;-308128219.0;-1920298.0;-4718.585495319372;-4715.068340214932;-62.12225944259808;-14153.193915460633;-35833.333333333336;21680.139417872702
0.21600000000000016;-347955141.0;-327236981.0;-1685879.0;-4758.07009431213;-4777.19059965753;-42.54763566184192;-9871.14974818951;-36250.0;26378.85025181049
0.22000000000000017;-367086736.0;-346515933.0;-1439208.0;-4782.898346567963;-4819.738235319372;-24.684338992758057;-6207.0630639582305;-36333.333333333336;30126.270269375105
0.22400000000000017;-386272674.0;-365893623.0;-1193113.0;-4796.484324161107;-4844.42257431213;-10.062552255832998;-3396.494398285995;-36083.333333333336;32686.83893504734
0.22800000000000017;-405482143.0;-385311563.0;-961111.0;-4802.3670574149155;-4854.485126567963;0.3341424068557899;-1470.6833134521275;-35583.333333333336;34112.65001988121
0.23200000000000018;-424696876.0;-404728166.0;-753977.0;-4803.682929284623;-4854.150984161107;6.545306746191272;-328.9679674269337;-34833.333333333336;34504.3653659064
0.23600000000000018;-443908431.0;-424118588.0;-578288.0;-4802.888527328407;-4847.605677414916;9.225468130292029;198.60048905411531;-33916.666666666664;34115.26715572078
0.24000000000000019;-463114766.0;-443472108.0;-436323.0;-4801.583595166076;-4838.380209284624;9.312301956217198;326.23304058279246;-32750.0;33076.233040582796
0.2440000000000002;-482316967.0;-462788379.0;-326387.0;-4800.549924497749;-4829.067907328406;7.901092162330315;258.4176670816305;-31416.666666666668;31675.0843337483
0.2480000000000002;-501516926.0;-482073046.0;-243921.0;-4799.98963385407;-4821.166815166076;5.981630668326943;140.0726609197136;-30083.333333333332;30223.405994253044
0.25200000000000017;-520716161.0;-501333786.0;-183140.0;-4799.808432296513;-4815.185184497749;4.207150643678688;45.30038938924008;-28666.666666666668;28711.96705605591
0.25600000000000017;-539915486.0;-520577698.0;-138463.0;-4799.8311833066455;-4810.97803385407;2.8618215575570503;-5.687752533049206;-27333.333333333332;27327.645580800283
0.2600000000000002;-559115152.0;-539810162.0;-105324.0;-4799.916072326829;-4808.116212296513;1.9655889898676833;-21.222255045813654;-25916.666666666668;25895.444411620854
0.2640000000000002;-578315101.0;-559034764.0;-80388.0;-4799.987090087681;-4806.150623306646;1.4112709798173455;-17.754440213138878;-24583.333333333332;24565.578893120193
0.2680000000000002;-597515190.0;-578253721.0;-61380.0;-4800.02208486208;-4804.739352326828;1.0694622391474695;-8.74869359972763;-23250.0;23241.25130640027
0.2720000000000002;-616715302.0;-597468400.0;-46790.0;-4800.027744786312;-4803.669890087681;0.8404052256009891;-1.4149810579056066;-21916.666666666668;21915.25168560876
0.2760000000000002;-635915379.0;-616679717.0;-35585.0;-4800.018916153049;-4802.82948486208;0.6666400757676456;2.2071583157412533;-20583.333333333332;20585.540491649073
0.2800000000000002;-655115410.0;-635888368.0;-27011.0;-4800.007515822879;-4802.162844786312;0.5232686332637968;2.850082542408927;-19250.0;19252.85008254241
0.2840000000000002;-674315408.0;-655094926.0;-20484.0;-4799.999449012957;-4801.639576153048;0.40302033016905625;2.01670248065966;-18000.0;18002.016702480658
0.2880000000000002;-693515392.0;-674299872.0;-15536.0;-4799.995829981168;-4801.236555822879;0.30494680992251233;0.9047579471825884;-16750.0;16750.90475794718
0.2920000000000002;-712715375.0;-693503598.0;-11794.0;-4799.9953894896;-4800.931609012957;0.22813903178939654;0.11012289201062231;-15416.666666666666;15416.776789558677
0.2960000000000002;-731915361.0;-712706411.0;-8964.0;-4799.996388177331;-4800.7034699811675;0.1702404915677107;-0.24967193280645006;-14166.666666666666;14166.41699473386
0.3000000000000002;-751115353.0;-731908543.0;-6818.0;-4799.997572664309;-4800.5332294896;0.12776131226837606;-0.29612174444082484;-12833.333333333334;12833.037211588893
0.3040000000000002;-770315347.0;-751110164.0;-5189.0;-4799.998370788274;-4800.405468177331;0.09655551302239473;-0.19953099126723828;-11583.333333333334;11583.133802342067
0.3080000000000002;-789515343.0;-770311399.0;-3948.0;-4799.99870484392;-4800.308912664309;0.07366187603474827;-0.0835139114769845;-10250.0;10249.916486088523
0.3120000000000002;-808715339.0;-789512340.0;-3003.0;-4799.998724533683;-4800.235250788274;0.05636594435418374;-0.004922440894006286;-9000.0;8999.995077559106
0.3160000000000002;-827915334.0;-808713055.0;-2284.0;-4799.998611859644;-4800.17888484392;0.04312031023710006;0.02816850974340923;-7750.0;7750.028168509743
0.32000000000000023;-847115329.0;-827913598.0;-1736.0;-4799.998490759966;-4800.135764533683;0.032992674038723635;0.030274919481598772;-6500.0;6500.030274919482
0.32400000000000023;-866315323.0;-847114009.0;-1320.0;-4799.998413746815;-4800.102771859644;0.025081099677663587;0.019253287973697297;-5333.333333333333;5333.352586621307
0.32800000000000024;-885515318.0;-866314319.0;-1004.0;-4799.998384438895;-4800.077690759967;0.01903701315222861;0.007326979812205536;-4166.666666666667;4166.673993646479
0.33200000000000024;-904715312.0;-885514553.0;-765.0;-4799.998385606285;-4800.058653746814;0.014369307918968843;-0.0002918475274782395;-3083.3333333333335;3083.333041485806
0.33600000000000024;-923915307.0;-904714730.0;-582.0;-4799.998398465586;-4800.044284438895;0.01097883260990784;-0.0032148252557817614;-2166.6666666666665;2166.6634518414107
0.34000000000000025;-943115301.0;-923914863.0;-444.0;-4799.998410961635;-4800.0333056062855;0.00826714069899026;-0.0031240122098097345;-1333.3333333333333;1333.3302093211234
0.34400000000000025;-962315296.0;-943114963.0;-338.0;-4799.99841843263;-4800.0250384655865;0.006347503951474209;-0.0018677487787499558;-750.0;749.9981322512213
0.34800000000000025;-981515290.0;-962315037.0;-259.0;-4799.998420983912;-4800.018690961635;0.004732529004286334;-0.0006378204489010386;-166.66666666666666;166.66602884621776
0.35200000000000026;-1000715285.0;-981515092.0;-198.0;-4799.998420579091;-4800.013958432631;0.0036574487185134785;0.00010120538718183525;83.33333333333333;-83.33323212794615
0.35600000000000026;-1019915280.0;-1000715133.0;-152.0;-4799.998419154935;-4800.010300983912;0.002760404821856355;0.00035603898140834644;333.3333333333333;-333.3329772943519
0.36000000000000026;-1039115274.0;-1019915163.0;-117.0;-4799.998417881027;-4800.00754057909;0.002101424155625864;0.0003184768502251245;333.3333333333333;-333.3330148564831
0.36400000000000027;-1058315269.0;-1039115184.0;-90.0;-4799.99841716448;-4800.005439154935;0.0016212739074035198;0.00017913680494530126;416.6666666666667;-416.66648752986174
0.36800000000000027;-1077515263.0;-1058315199.0;-70.0;-4799.998416949856;-4800.003817881027;0.0012007165469185566;5.365609467844479e-05;333.3333333333333;-333.33327967723864
0.3720000000000003;-1096715258.0;-1077515209.0;-54.0;-4799.998417018842;-4800.00261716448;0.0009602146246834309;-1.7246520656044595e-05;333.3333333333333;-333.33335057985397
0.3760000000000003;-1115915253.0;-1096715215.0;-43.0;-4799.9984171738615;-4800.001656949856;0.0006599310136152781;-3.875493348459713e-05;250.0;-250.00003875493348
0.3800000000000003;-1135114956.0;-1115915218.0;-35.0;-4799.925637565533;-4800.000997018842;0.0004798449808731675;18.194902082086628;166.66666666666666;-148.47176458458003
0.3840000000000003;-1154312486.0;-1135115220.0;264.0;-4799.382287925227;-4800.000517173861;0.09071960832807235;135.83741007664685;83.33333333333333;52.50407674331352
0.3880000000000003;-1173502136.0;-1154314859.0;2373.0;-4797.412204448393;-4799.909797565533;0.669889640306792;492.52086920841975;83.33333333333333;409.18753587508644
0.3920000000000003;-1192672169.0;-1173511818.0;9682.0;-4792.508053539956;-4799.239907925226;2.4086234768337818;1226.0377271093148;83.33333333333333;1142.7043937759815
0.3960000000000003;-1211802387.0;-1192699143.0;26974.0;-4782.554167324127;-4796.831284448393;5.941670908437118;2488.471553957197;83.33333333333333;2405.1382206238636
0.4000000000000003;-1230861170.0;-1211862701.0;60314.0;-4764.69565526919;-4790.8896135399555;11.954286215828688;4464.628013734227;83.33333333333333;4381.294680400894
0.4040000000000003;-1249804030.0;-1230978442.0;117272.0;-4735.714785354675;-4778.935327324127;21.275992054936978;7245.217478628774;83.33333333333333;7161.884145295441
0.4080000000000003;-1268575335.0;-1250009079.0;205049.0;-4692.826081383339;-4757.65933526919;34.24748991451452;10722.175992833854;250.0;10472.175992833854
0.4120000000000003;-1287112121.0;-1268902726.0;327391.0;-4634.196251494456;-4723.411845354675;50.22922397133607;14657.457472220813;333.3333333333333;14324.124138887479
0.4160000000000003;-1305348224.0;-1287595456.0;483335.0;-4559.025478847803;-4673.182621383339;67.98646988888322;18792.693161663236;666.6666666666666;18126.02649499657
0.4200000000000003;-1323218274.0;-1306016240.0;668016.0;-4467.512416001841;-4605.196151494456;86.25163264665298;22878.265711490487;1000.0;21878.265711490487
0.4240000000000003;-1340661263.0;-1324092018.0;873744.0;-4360.746984084408;-4518.944518847803;103.85674284596189;26691.35797935837;1583.3333333333333;25108.02464602504
0.4280000000000003;-1357623065.0;-1341752369.0;1091106.0;-4240.450164501123;-4415.087776001841;119.80715191743366;30074.204895821138;2250.0;27824.204895821138
0.43200000000000033;-1374058675.0;-1358933491.0;1310426.0;-4108.902388377573;-4295.2806240844075;133.45601958328461;32886.944030887666;3083.3333333333335;29803.61069755433
0.43600000000000033;-1389934845.0;-1375580789.0;1522114.0;-3969.0422259056113;-4161.824604501123;144.24905612355042;34965.04061799032;4000.0;30965.040617990326
0.44000000000000034;-1405231278.0;-1391651091.0;1716246.0;-3824.1080728520274;-4017.5755483775724;151.5080824719612;36233.53826339598;5000.0;31233.538263395985
0.44400000000000034;-1419938775.0;-1407115360.0;1884082.0;-3676.8741171661914;-3866.0674659056112;155.0043130535837;36808.488921459;6083.333333333333;30725.155588125668
0.44800000000000034;-1434055394.0;-1421959612.0;2020837.0;-3529.1547365279907;-3711.0631528520275;155.4392556858361;36929.845159550154;7333.333333333333;29596.51182621682
0.45200000000000035;-1447582628.0;-1436182107.0;2126713.0;-3381.8083306854523;-3555.6238971661915;154.07194063820089;36836.6014606346;8500.0;28336.601460634596
0.45600000000000035;-1460522739.0;-1449788314.0;2205686.0;-3235.0274483833873;-3401.5519565279906;152.08478584253817;36695.22057551626;9750.0;26945.220575516258
0.46000000000000035;-1472877449.0;-1462786182.0;2263443.0;-3088.6774341487126;-3249.4671706854524;150.24630230206503;36587.503558668686;10916.666666666666;25670.836892002022
0.46400000000000036;-1484647635.0;-1475183065.0;2305616.0;-2942.5463981589487;-3099.2208683833874;148.8803942346749;36532.758997440964;12166.666666666666;24366.0923307743
0.46800000000000036;-1495833523.0;-1486984426.0;2336791.0;-2796.4717224008436;-2950.3404741487125;148.00153598976385;36518.668939526266;13333.333333333334;23185.33560619293
0.47200000000000036;-1506435008.0;-1498193781.0;2360258.0;-2650.371194721609;-2802.3389381589486;147.4826957581049;36525.1319198087;14416.666666666666;22108.465253142036
0.47600000000000037;-1516451908.0;-1508813205.0;2378197.0;-2504.22477759997;-2654.8562424008437;147.17686767923487;36536.60428040973;15583.333333333334;20953.2709470764
0.48000000000000037;-1525884083.0;-1518843922.0;2392014.0;-2358.043806182602;-2507.679374721609;146.97543712163906;36545.24285434195;16750.0;19795.242854341952
0.4840000000000004;-1534731472.0;-1528286737.0;2402654.0;-2211.846992382661;-2360.70393759997;146.81937141736762;36549.203449985274;17916.666666666668;18632.536783318603
0.4880000000000004;-1542994065.0;-1537142275.0;2410803.0;-2065.6483103428004;-2213.884566182602;146.68575379994127;36549.67050996515;19083.333333333332;17466.337176631823
0.4920000000000004;-1550671883.0;-1545411070.0;2417005.0;-1919.4542050005566;-2067.198812382661;146.57080203986038;36548.52633556095;20166.666666666668;16381.859668894282
0.4960000000000004;-1557764945.0;-1553093582.0;2421699.0;-1773.2655180043844;-1920.6280103428005;146.47574534224395;36547.17174904306;21333.333333333332;15213.838415709728
0.5000000000000003;-1564273267.0;-1560190191.0;2425246.0;-1627.0804917306143;-1774.1522650005566;146.4015069961722;36546.25656844251;22500.0;14046.256568442515
0.5040000000000003;-1570196855.0;-1566701194.0;2427927.0;-1480.8970037768886;-1627.7507580043844;146.34588627377002;36545.87198843143;23666.666666666668;12879.20532176476
