Zeit[sec];Sollposition[°];Istposition[°];Positionsschleppfehler[°];Sollgeschwindigkeit[°/s];Istgeschwindigkeit[°/s];Geschwindigkeitsdifferenz[°/s];Sollbeschleunigung[°/s*s];Istbeschleunigung[°/s*s];Beschleunigungsdifferenz[°/s*s]
0.0;-9979199999.0;-9979199995.0;-4.0;0.0;-0.00023999999999999998;0.0;0.0;0.0;0.0
0.004;-9979199999.0;-9979199995.0;-4.0;0.0;-0.00023999999999999998;0.0;0.0;0.0;0.0
0.008;-9979199999.0;-9979199995.0;-4.0;0.0;-0.00023999999999999998;0.0;0.0;0.0;0.0
0.012;-9979199999.0;-9979199995.0;-4.0;0.0;-0.00023999999999999998;0.0;0.0;0.0;0.0
0.016;-9979199999.0;-9979199995.0;-4.0;0.0;-0.00023999999999999998;0.0;0.0;0.0;0.0
0.02;-9979199999.0;-9979199995.0;-4.0;0.0;-0.00023999999999999998;0.0;0.0;0.0;0.0
0.024;-9979199999.0;-9979199995.0;-4.0;0.0;-0.00023999999999999998;0.0;0.0;0.0;0.0
0.028;-9979199999.0;-9979199995.0;-4.0;0.0;-0.00023999999999999998;0.0;0.0;0.0;0.0
0.032;-9979199999.0;-9979199995.0;-4.0;0.0;-0.00023999999999999998;0.0;0.0;0.0;0.0
0.036000000000000004;-9979199999.0;-9979199995.0;-4.0;0.0;-0.00023999999999999998;0.0;0.0;0.0;0.0
0.04000000000000001;-9979199999.0;-9979199995.0;-4.0;0.0;-0.00023999999999999998;0.0;0.0;0.0;0.0
0.04400000000000001;-9979199999.0;-9979199995.0;-4.0;0.0;-0.00023999999999999998;0.0;0.0;0.0;0.0
0.048000000000000015;-9979199999.0;-9979199995.0;-4.0;0.0;-0.00023999999999999998;0.0;0.0;0.0;0.0
0.05200000000000002;-9979199999.0;-9979199995.0;-4.0;0.0;-0.00023999999999999998;0.0;0.0;0.0;0.0
0.05600000000000002;-9979200562.0;-9979199995.0;-4.0;-0.14065280568301358;-0.00023999999999999998;0.0;-35.163201420753396;0.0;-35.163201420753396
0.060000000000000026;-9979206169.0;-9979199995.0;-567.0;-1.4016998524907087;-0.00023999999999999998;-0.1744328056830136;-315.2617617019238;0.0;-315.2617617019238
0.06400000000000003;-9979377890.0;-9979200693.0;-5476.0;-42.93032388094059;-0.17467280568301358;-1.555587046807695;-10382.156007112471;0.0;-10382.156007112471
0.06800000000000003;-9979690914.0;-9979207614.0;-170276.0;-78.25586773672819;-1.7302598524907087;-51.41662402844988;-8831.385963946901;0.0;-8831.385963946901
0.07200000000000004;-9980271063.0;-9979420201.0;-270713.0;-145.03724445085103;-53.14688388094059;-41.351763855787596;-16695.34417853071;-83.33333333333333;-16612.010845197376
0.07600000000000004;-9981154944.0;-9979798195.0;-472868.0;-220.97027142240628;-94.49864773672819;-78.91067671412286;-18983.256742888814;-333.3333333333333;-18649.92340955548
0.08000000000000004;-9982408280.0;-9980491832.0;-663112.0;-313.33392529393626;-173.40932445085105;-87.34766697155521;-23090.913467882496;-833.3333333333334;-22257.58013454916
0.08400000000000005;-9984186851.0;-9981534859.0;-873421.0;-444.6428776224831;-260.75699142240626;-104.98219387153;-32827.23808213672;-1416.6666666666667;-31410.57141547005
0.08800000000000005;-9986663158.0;-9982997815.0;-1189036.0;-619.0767906347202;-365.73918529393626;-150.24585232854685;-43608.478253059264;-2083.3333333333335;-41525.14491972593
0.09200000000000005;-9989988675.0;-9985061755.0;-1601403.0;-831.3790898134818;-515.9850376224831;-199.175933012237;-53075.574794690394;-2916.6666666666665;-50158.90812802373
0.09600000000000006;-9994290141.0;-9987922398.0;-2066277.0;-1075.3663835323396;-715.1609706347201;-240.19473917876167;-60996.82342971445;-4166.666666666667;-56830.15676304779
0.10000000000000006;-9999685557.0;-9991743820.0;-2546321.0;-1348.854088779472;-955.3557098134818;-272.7899337188578;-68371.92631178311;-5666.666666666667;-62705.25964511644
0.10400000000000006;-10006280647.0;-9996656402.0;-3029155.0;-1648.7724019582022;-1228.1456435323396;-302.4577452471324;-74979.57829468253;-7583.333333333333;-67396.2449613492
0.10800000000000007;-10014147800.0;-10002778815.0;-3501832.0;-1966.788002702993;-1530.603388779472;-328.2789331787303;-79503.90018619772;-9666.666666666666;-69837.23351953104
0.11200000000000007;-10023334990.0;-10010214344.0;-3933456.0;-2296.797378893571;-1858.8823219582023;-343.9130407447906;-82502.3440476445;-12083.333333333334;-70419.01071431117
0.11600000000000008;-10033862695.0;-10019025525.0;-4309465.0;-2631.9263372515557;-2202.795362702993;-352.56991619057817;-83782.23958949615;-14583.333333333334;-69198.90625616282
0.12000000000000008;-10045703235.0;-10029246986.0;-4615709.0;-2960.134717119107;-2555.365278893571;-353.50359835798463;-82052.0949668878;-17166.666666666668;-64885.42830022114
0.12400000000000008;-10058793946.0;-10040882461.0;-4820774.0;-3272.6776484289544;-2908.8688772515557;-340.5122798675511;-78135.73282746188;-19916.666666666668;-58219.06616079521
0.12800000000000009;-10073053130.0;-10053879985.0;-4913961.0;-3564.7959003968804;-3249.381157119107;-318.13415130984777;-73029.5629919815;-22666.666666666668;-50362.896325314825
0.1320000000000001;-10088376370.0;-10068150046.0;-4903084.0;-3830.809804682406;-3567.5153084289545;-291.4656319679257;-66503.47607138145;-25333.333333333332;-41170.14273804811
0.1360000000000001;-10104636143.0;-10083585969.0;-4790401.0;-4064.9428866564213;-3858.98094039688;-259.2529242855262;-58533.27049350378;-27833.333333333332;-30699.937160170448
0.1400000000000001;-10121691069.0;-10100058904.0;-4577239.0;-4263.731456267057;-4118.233864682406;-221.34336197401444;-49697.14240265898;-30083.333333333332;-19613.809069325653
0.1440000000000001;-10139396028.0;-10117417212.0;-4273857.0;-4426.239393876142;-4339.577226656421;-180.5856496106362;-40626.98440227109;-32083.333333333332;-8543.65106893776
0.1480000000000001;-10157603507.0;-10135497863.0;-3898165.0;-4551.869697498452;-4520.162876267057;-139.9664176090846;-31407.575905577687;-33833.333333333336;2425.7574277556487
0.1520000000000001;-10176179582.0;-10154138380.0;-3465127.0;-4644.018404171621;-4660.129293876142;-99.64802362231057;-23037.176668292203;-35166.666666666664;12129.48999837446
0.1560000000000001;-10195024055.0;-10173177489.0;-3002093.0;-4711.118002089102;-4759.777317498452;-64.36666667316877;-16774.89947937033;-36333.333333333336;19558.433853963004
0.16000000000000011;-10214056556.0;-10192474064.0;-2549991.0;-4758.125081010771;-4824.143984171621;-39.97347791748143;-11751.769730417209;-37083.333333333336;25331.563602916125
0.16400000000000012;-10233203604.0;-10211930533.0;-2126023.0;-4786.7617594564335;-4864.117462089102;-21.568998921668936;-7159.169611415564;-37666.666666666664;30507.4970552511
0.16800000000000012;-10252407211.0;-10231473278.0;-1730326.0;-4800.901616308784;-4885.686461010771;-4.8948584456620665;-3534.9642130875054;-37916.666666666664;34381.70245357916
0.17200000000000013;-10271629716.0;-10251035603.0;-1371608.0;-4805.626032473756;-4890.581319456433;7.383223147649915;-1181.1040412430884;-38083.333333333336;36902.22929209025
0.17600000000000013;-10290851282.0;-10270568395.0;-1061321.0;-4805.391232108199;-4883.1980963087835;13.892803835027735;58.70009138925525;-38166.666666666664;38225.36675805592
0.18000000000000013;-10310064901.0;-10290045616.0;-805666.0;-4803.40437270309;-4869.305292473756;15.57410036555666;496.7148512771473;-38166.666666666664;38663.38151794381
0.18400000000000014;-10329270771.0;-10309460540.0;-604361.0;-4801.467259581281;-4853.731192108199;14.065159405108716;484.2782804523722;-38083.333333333336;38567.61161378571
0.18800000000000014;-10348471761.0;-10328819204.0;-451567.0;-4800.247429820784;-4839.66603270309;11.104753121810063;304.95744012409887;-37916.666666666664;38221.62410679076
0.19200000000000014;-10367670722.0;-10348133449.0;-338312.0;-4799.739956646255;-4828.56127958128;8.015129760496166;126.86829363224206;-37833.333333333336;37960.20162696558
0.19600000000000015;-10386869447.0;-10367415633.0;-255089.0;-4799.681047127264;-4820.546149820784;5.5008531745288565;14.727379747910163;-37666.666666666664;37681.39404641457
0.20000000000000015;-10406068663.0;-10386675814.0;-193633.0;-4799.803888298124;-4815.045296646255;3.7462695189915394;-30.710292714957177;-37500.0;37469.28970728505
0.20400000000000015;-10425268425.0;-10405921010.0;-147653.0;-4799.940142426898;-4811.299027127264;2.6359588291397813;-34.063532193613355;-37250.0;37215.93646780639
0.20800000000000016;-10444468517.0;-10425155662.0;-112763.0;-4800.022811167542;-4808.663068298124;1.9571458712262029;-20.667185161073576;-36750.0;36729.33281483893
0.21200000000000016;-10463668714.0;-10444382485.0;-86032.0;-4800.049044130399;-4806.705922426898;1.5211912593558736;-6.558240714184649;-36166.666666666664;36160.10842595248
0.21600000000000016;-10482868880.0;-10463603223.0;-65491.0;-4800.041249988865;-4805.184731167542;1.2062270371425257;1.948535383462513;-35416.666666666664;35418.615202050125
0.22000000000000017;-10502068971.0;-10482819137.0;-49743.0;-4800.022377816381;-4803.978504130399;0.952674141533862;4.7180431211018;-34583.333333333336;34588.05137645444
0.22400000000000017;-10521268996.0;-10502031240.0;-37731.0;-4800.006233372065;-4803.025829988866;0.739592172484663;4.036111078903559;-33416.666666666664;33420.702777745566
0.22800000000000017;-10540468987.0;-10521240384.0;-28612.0;-4799.997396249369;-4802.286237816381;0.5632844443152862;2.2092806741511595;-31833.333333333332;31835.542614007485
0.23200000000000018;-10559668967.0;-10540447275.0;-21712.0;-4799.99489444737;-4801.722953372066;0.422837122697274;0.6254504996832111;-30000.0;30000.625450499683
0.23600000000000018;-10578868952.0;-10559652475.0;-16492.0;-4799.995886618386;-4801.300116249368;0.31570180199832976;-0.2480427540376695;-27833.333333333332;27833.085290579293
0.24000000000000019;-10598068944.0;-10578856412.0;-12540.0;-4799.9978817974;-4800.98441444737;0.2361278289836264;-0.4987947534118575;-25500.0;25499.50120524659
0.2440000000000002;-10617268943.0;-10598059405.0;-9539.0;-4799.999496402086;-4800.748286618386;0.17806482098694687;-0.40365117160945374;-22916.666666666668;22916.26301549506
0.2480000000000002;-10636468945.0;-10617261685.0;-7258.0;-4800.000327005181;-4800.570221797399;0.13524539531317714;-0.2076507737456268;-20250.0;20249.792349226256
0.25200000000000017;-10655668948.0;-10636463424.0;-5521.0;-4800.000518110355;-4800.434976402086;0.103389396905186;-0.04777629351337964;-17500.0;17499.95222370649
0.25600000000000017;-10674868951.0;-10655664750.0;-4198.0;-4800.000376284334;-4800.331587005181;0.07918889482607483;0.03545650520209165;-14833.333333333334;14833.368789838536
0.2600000000000002;-10694068952.0;-10674865759.0;-3192.0;-4800.000153167965;-4800.252398110355;0.06050182602029963;0.055779092235752614;-12166.666666666666;12166.722445758902
0.2640000000000002;-10713268953.0;-10694066526.0;-2426.0;-4799.999980446247;-4800.191896284335;0.04618311636932049;0.043180429656786146;-9750.0;9750.043180429657
0.2680000000000002;-10732468954.0;-10713267108.0;-1845.0;-4799.999890712645;-4800.145713167965;0.035032721718380344;0.02243340054519649;-7416.666666666667;7416.689100067212
0.2720000000000002;-10751668954.0;-10732467550.0;-1404.0;-4799.999864433006;-4800.110680446247;0.02654973360222357;0.0065699096012394875;-5500.0;5500.006569909601
0.2760000000000002;-10770868954.0;-10751667886.0;-1068.0;-4799.999868991938;-4800.084130712645;0.020186279638437554;-0.0011397328307793941;-3666.6666666666665;3666.6655269338357
0.2800000000000002;-10790068955.0;-10770868141.0;-813.0;-4799.99987931301;-4800.063944433006;0.01529544106870162;-0.002580268073870684;-2333.3333333333335;2333.3307530652596
0.2840000000000002;-10809268955.0;-10790068335.0;-620.0;-4799.999883137318;-4800.048648991938;0.011569678928026406;-0.0009560769740346586;-1166.6666666666667;1166.6657105896927
0.2880000000000002;-10828468956.0;-10809268483.0;-472.0;-4799.999878095371;-4800.03707931301;0.00887617569151189;0.0012604866697074613;-416.6666666666667;416.6679271533364
0.2920000000000002;-10847668956.0;-10828468595.0;-361.0;-4799.999866690543;-4800.028203137318;0.006665041946689598;0.0028512070002761902;166.66666666666666;-166.66381545966638
0.2960000000000002;-10866868956.0;-10847668681.0;-275.0;-4799.999852391659;-4800.021538095371;0.005171404828615778;0.003574720949472976;416.6666666666667;-416.6630919457172
0.3000000000000002;-10886068957.0;-10866868746.0;-210.0;-4799.999837684202;-4800.016366690543;0.003914298883501033;0.0036768642530660145;583.3333333333334;-583.3296564690803
0.3040000000000002;-10905268957.0;-10886068795.0;-162.0;-4799.999823705021;-4800.012452391659;0.0028947074570169207;0.0034947952372021973;666.6666666666666;-666.6631718714294
0.3080000000000002;-10924468957.0;-10905268833.0;-124.0;-4799.999810604733;-4800.009557684202;0.0022939791806493304;0.0032750720038166037;666.6666666666666;-666.6633915946628
0.3120000000000002;-10943668957.0;-10924468862.0;-95.0;-4799.999798075176;-4800.007263705022;0.0017531002886244096;0.0031323893381340895;583.3333333333334;-583.3302009439952
0.3160000000000002;-10962868957.0;-10943668884.0;-73.0;-4799.999785767218;-4800.005510604733;0.0013325295567483408;0.0030769895147386706;416.6666666666667;-416.66358967715195
0.32000000000000023;-10982068957.0;-10962868900.0;-57.0;-4799.999773417133;-4800.004178075176;0.0009723079583636718;0.0030875212360115256;333.3333333333333;-333.3302458120973
0.32400000000000023;-11001268957.0;-10982068912.0;-45.0;-4799.999760943552;-4800.003205767218;0.0007323500849452103;0.003118395170531585;250.0;-249.99688160482947
0.32800000000000024;-11020468957.0;-11001268921.0;-36.0;-4799.999748325125;-4800.002473417133;0.0005524735806829995;0.003154606702082674;166.66666666666666;-166.66351205996457
0.33200000000000024;-11039668957.0;-11020468928.0;-29.0;-4799.999735596476;-4800.001920943552;0.0004326184271121747;0.0031821623451833148;83.33333333333333;-83.33015117098815
0.33600000000000024;-11058868957.0;-11039668933.0;-24.0;-4799.999722806656;-4800.001488325125;0.0003127286490780534;0.0031974550438462757;83.33333333333333;-83.33013587828948
0.34000000000000025;-11078068956.0;-11058868937.0;-20.0;-4799.999709974131;-4800.001175596476;0.00025278982047893805;0.003208131147403037;83.33333333333333;-83.33012520218593
0.34400000000000025;-11097268956.0;-11078068940.0;-16.0;-4799.999697101789;-4800.000922806656;0.0002528325239836704;0.003218085566913942;83.33333333333333;-83.33011524776641
0.34800000000000025;-11116468956.0;-11097268942.0;-14.0;-4799.9996842040555;-4800.000669974132;0.0001328723428741796;0.003224433385184966;0.0;0.003224433385184966
0.35200000000000026;-11135668955.0;-11116468944.0;-12.0;-4799.999671259001;-4800.000537101789;0.000132897733237769;0.0032362636375182774;0.0;0.0032362636375182774
0.35600000000000026;-11154868955.0;-11135668945.0;-10.0;-4799.999658283361;-4800.0004042040555;0.00013294505424710223;0.003243909986849758;0.0;0.003243909986849758
0.36000000000000026;-11174068954.0;-11154868946.0;-9.0;-4799.9996452569385;-4800.000271259001;7.297564025066094e-05;0.003256605623391806;0.0;0.003256605623391806
0.36400000000000027;-11193268954.0;-11174068946.0;-8.0;-4799.99963219416;-4800.000198283361;7.302642279682914e-05;0.003265694658693974;0.0;0.003265694658693974
0.36800000000000027;-11212468953.0;-11193268946.0;-8.0;-4799.9996190794445;-4800.000125256938;1.3062778634775896e-05;0.0032786788324301597;0.0;0.0032786788324301597
0.3720000000000003;-11231668953.0;-11212468946.0;-7.0;-4799.99960593068;-4800.00011219416;7.311471472348785e-05;0.003287191020717728;0.0;0.003287191020717728
0.3760000000000003;-11250868952.0;-11231668946.0;-7.0;-4799.999592737482;-4800.000039079445;1.3148764082870912e-05;0.0032982995890051825;0.0;0.0032982995890051825
0.3800000000000003;-11270068951.0;-11250868946.0;-6.0;-4799.999579499849;-4800.000025930681;7.319319865928264e-05;0.0033094083846663125;0.0;0.0033094083846663125
0.3840000000000003;-11289268950.0;-11270068945.0;-6.0;-4799.999566223551;-4799.999952737482;1.323763353866525e-05;0.003319074494356755;0.0;0.003319074494356755
0.3880000000000003;-11308468949.0;-11289268944.0;-6.0;-4799.999552909741;-4799.999939499849;1.327629797742702e-05;0.003328452294226736;0.0;0.003328452294226736
0.3920000000000003;-11327668948.0;-11308468943.0;-6.0;-4799.99953954919;-4799.999926223551;1.3313809176906943e-05;0.0033401379369024653;0.0;0.0033401379369024653
0.3960000000000003;-11346868947.0;-11327668942.0;-6.0;-4799.999526155168;-4799.999912909741;1.3360551747609861e-05;0.0033485055155324517;0.0;0.0033485055155324517
0.4000000000000003;-11366068946.0;-11346868941.0;-6.0;-4799.99951271267;-4799.99989954919;1.3394022062129807e-05;0.0033606243050599005;0.0;0.0033606243050599005
0.4040000000000003;-11385268945.0;-11366068940.0;-6.0;-4799.999499239588;-4799.999886155168;1.3442497220239602e-05;0.003368270654391381;0.0;0.003368270654391381
0.4080000000000003;-11404468944.0;-11385268939.0;-6.0;-4799.999485722647;-4799.99987271267;1.3473082617565524e-05;0.00337923529514228;0.0;0.00337923529514228
0.4120000000000003;-11423668943.0;-11404468938.0;-6.0;-4799.99947216935;-4799.999859239588;1.351694118056912e-05;0.0033883241030707723;0.0;0.0033883241030707723
0.4160000000000003;-11442868942.0;-11423668937.0;-6.0;-4799.999458570465;-4799.999845722647;1.3553296412283089e-05;0.0033997212085523643;0.0;0.0033997212085523643
0.4200000000000003;-11462068940.0;-11442868936.0;-6.0;-4799.9994449433025;-4799.99983216935;1.3598884834209457e-05;0.0034067907108692452;0.0;0.0034067907108692452
0.4240000000000003;-11481268939.0;-11462068935.0;-5.0;-4799.999431272281;-4799.999818570465;7.36271631467389e-05;0.003417755351620144;0.0;0.003417755351620144
0.4280000000000003;-11500466870.0;-11481268933.0;-6.0;-4799.482616909689;-4799.999744943302;-4.6328978896781337e-05;129.20359064810327;0.0;129.20359064810327
0.43200000000000033;-11519656520.0;-11500468932.0;2062.0;-4797.412099345014;-4799.999791272281;0.6408943625920074;517.6293911686116;0.0;517.6293911686116
0.43600000000000033;-11538829764.0;-11519666367.0;9847.0;-4793.31086167269;-4799.358896909689;2.5376175646752017;1025.3094180809512;83.33333333333333;941.9760847476178
0.44000000000000034;-11557962276.0;-11538853652.0;23888.0;-4783.127748135333;-4796.821279345014;4.943697672323651;2545.778384339428;83.33333333333333;2462.4450510060947
0.44400000000000034;-11576996030.0;-11558021162.0;58886.0;-4758.4383215303;-4791.87758167269;12.28299353735747;6172.356651258269;83.33333333333333;6089.023317924936
0.44800000000000034;-11595875167.0;-11577139540.0;143510.0;-4719.784062202443;-4779.594588135333;29.7668666050331;9663.564831964095;83.33333333333333;9580.231498630761
0.45200000000000035;-11614460543.0;-11596138850.0;263683.0;-4646.343574193372;-4749.8277215303;45.86463932785682;18360.12200226787;166.66666666666666;18193.455335601204
0.45600000000000035;-11632711982.0;-11614954702.0;494159.0;-4562.859702442894;-4703.963082202443;87.26904800907141;20870.967937619527;416.6666666666667;20454.30127095286
0.46000000000000035;-11650489793.0;-11633421478.0;709496.0;-4444.4525943924855;-4616.694034193371;96.40409175047807;29601.77701260204;833.3333333333334;28768.44367926871
0.46400000000000036;-11667657361.0;-11651502637.0;1012844.0;-4291.891683380282;-4520.289942442893;136.60798805040758;38140.22775305079;1500.0;36640.22775305079
0.46800000000000036;-11684067598.0;-11669037364.0;1380003.0;-4102.559032577959;-4383.681954392486;174.59045101220363;47333.16270058072;2333.3333333333335;44999.82936724738
0.47200000000000036;-11699565504.0;-11685873730.0;1806132.0;-3874.4762652797235;-4209.091503380282;214.90039080232282;57020.69182455898;3333.3333333333335;53687.35849122565
0.47600000000000037;-11714007582.0;-11701850494.0;2284990.0;-3610.5193399245168;-3994.1911125779593;256.81424729823584;65989.23133880169;4666.666666666667;61322.56467213502
0.48000000000000037;-11727283209.0;-11716800001.0;2792419.0;-3318.906779414794;-3737.3768652797235;294.40266535520686;72903.14012743067;6333.333333333333;66569.80679409734
0.4840000000000004;-11739299720.0;-11730571897.0;3288688.0;-3004.127593187974;-3442.9741999245166;321.38870050972264;78694.796556705;8416.666666666666;70278.12989003834
0.4880000000000004;-11749985101.0;-11743058238.0;3758518.0;-2671.345134597383;-3121.585499414794;342.96898622681965;83195.61464764774;10666.666666666666;72528.94798098107
