Zeit[sec];Sollposition[°];Istposition[°];Positionsschleppfehler[°];Sollgeschwindigkeit[°/s];Istgeschwindigkeit[°/s];Geschwindigkeitsdifferenz[°/s];Sollbeschleunigung[°/s*s];Istbeschleunigung[°/s*s];Beschleunigungsdifferenz[°/s*s]
0.0;0.0;5.0;-5.0;-0.0;-0.00021499999999999997;0.0;0.0;0.0;0.0
0.004;0.0;5.0;-5.0;-0.0;-0.00021499999999999997;0.0;0.0;0.0;0.0
0.008;0.0;5.0;-5.0;-0.0;-0.00021499999999999997;0.0;0.0;0.0;0.0
0.012;0.0;5.0;-5.0;-0.0;-0.00021499999999999997;0.0;0.0;0.0;0.0
0.016;0.0;5.0;-5.0;-0.0;-0.00021499999999999997;0.0;0.0;0.0;0.0
0.02;0.0;5.0;-5.0;-0.0;-0.00021499999999999997;0.0;0.0;0.0;0.0
0.024;0.0;5.0;-5.0;-0.0;-0.00021499999999999997;0.0;0.0;0.0;0.0
0.028;0.0;5.0;-5.0;-0.0;-0.00021499999999999997;0.0;0.0;0.0;0.0
0.032;0.0;5.0;-5.0;-0.0;-0.00021499999999999997;0.0;0.0;0.0;0.0
0.036000000000000004;0.0;5.0;-5.0;-0.0;-0.00021499999999999997;0.0;0.0;0.0;0.0
0.04000000000000001;0.0;5.0;-5.0;-0.0;-0.00021499999999999997;0.0;0.0;0.0;0.0
0.04400000000000001;0.0;5.0;-5.0;-0.0;-0.00021499999999999997;0.0;0.0;0.0;0.0
0.048000000000000015;0.0;5.0;-5.0;-0.0;-0.00021499999999999997;0.0;0.0;0.0;0.0
0.05200000000000002;-245.0;5.0;-5.0;-0.06140570558323572;-0.00021499999999999997;0.0;-15.35142639580893;0.0;-15.35142639580893
0.05600000000000002;-2693.0;5.0;-250.0;-0.6119491745434454;-0.00021499999999999997;-0.07194070558323572;-137.63586724005242;0.0;-137.63586724005242
0.060000000000000026;-14724.0;-283.0;-2410.0;-3.0078542831005364;-0.07215570558323572;-0.6434234689602097;-598.9762771392727;0.0;-598.9762771392727
0.06400000000000003;-54492.0;-3145.0;-11579.0;-9.941984002700298;-0.7155791745434454;-2.790172108557091;-1733.5324298999406;0.0;-1733.5324298999406
0.06800000000000003;-155377.0;-17168.0;-37324.0;-25.221160679608346;-3.5057512831005364;-8.041164719599761;-3819.794169227012;0.0;-3819.794169227012
0.07200000000000004;-366376.0;-63355.0;-92022.0;-52.74970367769378;-11.546916002700298;-17.631190676908048;-6882.135749521359;0.0;-6882.135749521359
0.07600000000000004;-747473.0;-180067.0;-186309.0;-95.27436366410818;-29.178106679608344;-31.58288399808544;-10631.1649966036;-83.33333333333333;-10547.831663270266
0.08000000000000004;-1363659.0;-423110.0;-324363.0;-154.04639315222406;-60.76099067769378;-48.460981986414396;-14693.00737202897;-250.0;-14443.00737202897
0.08400000000000005;-2281892.0;-859997.0;-503662.0;-229.5583115851374;-109.22197266410818;-66.48188648811588;-18877.979608228336;-500.0;-18377.979608228336
0.08800000000000005;-3570335.0;-1562812.0;-719080.0;-322.11073229852116;-175.70385915222406;-84.77489243291333;-23138.105178345937;-916.6666666666666;-22221.438511679273
0.09200000000000005;-5296210.0;-2604727.0;-965608.0;-431.4688091015832;-260.4787515851374;-103.15312471338376;-27339.51920076551;-1416.6666666666667;-25922.85253409884
0.09600000000000006;-7521502.0;-4059254.0;-1236956.0;-556.3229158685654;-363.63187629852115;-121.02604080306202;-31213.52669174554;-2083.3333333333335;-29130.19335841221
0.10000000000000006;-10298986.0;-5997885.0;-1523617.0;-694.3708551987773;-484.65791710158317;-137.1805297669822;-34511.984832553;-2833.3333333333335;-31678.651499219664
0.10400000000000006;-13669816.0;-8485238.0;-1813748.0;-842.7074597433542;-621.8384468685654;-150.523572330212;-37084.15113614422;-3833.3333333333335;-33250.81780281088
0.10800000000000007;-17662187.0;-11574686.0;-2095130.0;-998.0926758978784;-772.3620191987774;-160.43603054457685;-38846.304038631046;-4916.666666666667;-33929.63737196438
0.11200000000000007;-22291732.0;-15305878.0;-2356309.0;-1157.3861812789114;-932.7980497433542;-166.61591315452404;-39823.37634525826;-6083.333333333333;-33740.04301192492
0.11600000000000008;-27564314.0;-19703533.0;-2588199.0;-1318.1456204148908;-1099.4139628978783;-169.26477538103313;-40189.85978399485;-7250.0;-32939.85978399485
0.12000000000000008;-33480025.0;-24778247.0;-2786067.0;-1478.9276867029473;-1268.6787382789114;-169.2677631359793;-40195.51657201413;-8583.333333333334;-31612.183238680795
0.12400000000000008;-40036687.0;-30530033.0;-2949992.0;-1639.165298022321;-1437.9465014148907;-167.83084128805672;-40059.402829843406;-9916.666666666666;-30142.73616317674
0.12800000000000009;-47232033.0;-36953142.0;-3083545.0;-1798.8364404181327;-1605.7773427029474;-165.98039031937356;-39917.78559895295;-11250.0;-28667.785598952945
0.1320000000000001;-55064598.0;-44040172.0;-3191861.0;-1958.141133876469;-1771.757733022321;-164.32873039581182;-39826.173364584065;-12583.333333333334;-27242.84003125073
0.1360000000000001;-63533768.0;-51784517.0;-3280081.0;-2117.2923586365882;-1936.0864634181328;-163.09815345833636;-39787.80619002981;-13833.333333333334;-25954.472856696477
0.1400000000000001;-72639482.0;-60181255.0;-3352513.0;-2276.4284982021672;-2099.184616876469;-162.26580076011896;-39784.03489139475;-15166.666666666666;-24617.36822472809
0.1440000000000001;-82381910.0;-69227056.0;-3412426.0;-2435.606818680283;-2261.450417636588;-161.71239856557895;-39794.580119528975;-16333.333333333334;-23461.24678619564
0.1480000000000001;-92761237.0;-78919707.0;-3462203.0;-2594.831614991864;-2423.162816202167;-161.3187314781162;-39806.19907789526;-17666.666666666668;-22139.53241122859
0.1520000000000001;-103777579.0;-89257633.0;-3503604.0;-2754.0853995635425;-2584.4815476802833;-161.00503931158073;-39813.44614291959;-18916.666666666668;-20896.77947625292
0.1560000000000001;-115430977.0;-100239579.0;-3538000.0;-2913.3493778896477;-2745.486586991864;-160.73281257167855;-39815.9945815263;-20250.0;-19565.994581526298
0.16000000000000011;-127721409.0;-111864456.0;-3566521.0;-3072.6079571654022;-2906.2193995635425;-160.4903813261053;-39814.64481893863;-21416.666666666668;-18397.978152271964
0.16400000000000012;-140648753.0;-124131295.0;-3590114.0;-3231.835685054039;-3066.709780889648;-160.27307827575441;-39806.93197215919;-22666.666666666668;-17140.265305492525
0.16800000000000012;-154212681.0;-137039226.0;-3609527.0;-3390.981924505603;-3226.9828591654023;-160.0624868886366;-39786.55986289095;-23916.666666666668;-15869.893196224286
0.17200000000000013;-168411951.0;-150587407.0;-3625274.0;-3549.817419003076;-3387.045346054039;-159.82336045156399;-39708.873624368265;-25250.0;-14458.873624368265
0.17600000000000013;-183241579.0;-164774881.0;-3637070.0;-3707.406661197519;-3546.868706505603;-159.342722497473;-39397.31054861079;-26500.0;-12897.310548610789
0.18000000000000013;-198688046.0;-179599726.0;-3641853.0;-3861.6166057022774;-3706.211429003076;-157.7949111944431;-38552.48612618959;-27750.0;-10802.486126189593
0.18400000000000014;-214725553.0;-195055751.0;-3632295.0;-4009.376464159988;-3864.006340197519;-153.79895050475852;-36939.9646144276;-28916.666666666668;-8023.297947760927
0.18800000000000014;-231315076.0;-211126972.0;-3598581.0;-4147.380741494589;-4017.8052907022775;-146.31015645771004;-34501.06933365021;-30166.666666666668;-4334.402666983539
0.19200000000000014;-248405343.0;-227783433.0;-3531643.0;-4272.566505853992;-4164.1154471599875;-135.1259433346013;-31296.44108985076;-31333.333333333332;36.89224348257267
0.19600000000000015;-265935051.0;-244980398.0;-3424945.0;-4382.426773090895;-4299.241390494589;-120.59775035940311;-27465.066809225846;-32500.0;5034.933190774154
0.20000000000000015;-283836161.0;-262659754.0;-3275297.0;-4475.277140069064;-4419.839140853992;-103.42540323690264;-23212.59174454235;-33500.0;10287.408255457649
0.20400000000000015;-302037330.0;-280752812.0;-3083349.0;-4550.292200166754;-4523.264544090895;-84.59660297817027;-18753.765024422362;-34333.333333333336;15579.568308910972
0.20800000000000016;-320467107.0;-299184256.0;-2853074.0;-4607.444089690636;-4607.861147069065;-65.11323509768863;-14287.972380970587;-35083.333333333336;20795.36095236275
0.21200000000000016;-339058082.0;-317876153.0;-2590954.0;-4647.7433231215755;-4672.9743821667535;-45.88072952388302;-10074.80835773481;-35416.666666666664;25341.858308931856
0.21600000000000016;-357752083.0;-336751573.0;-2306509.0;-4673.50015677693;-4718.8551116906365;-28.068098430939244;-6439.208413838742;-35583.333333333336;29144.124919494592
0.22000000000000017;-376503832.0;-355739265.0;-2012818.0;-4687.936919894607;-4746.923210121576;-13.128120655354905;-3609.190779419123;-35333.333333333336;31724.142553914215
0.22400000000000017;-395281609.0;-374779470.0;-1724362.0;-4694.444145958778;-4760.051330776931;-2.0331551176759604;-1626.806516042734;-35000.0;33373.193483957264
0.22800000000000017;-414066059.0;-393827807.0;-1453802.0;-4696.112206083874;-4762.084485894607;5.126853935828876;-417.01503127410433;-34250.0;33832.9849687259
0.23200000000000018;-432847848.0;-412855637.0;-1210422.0;-4695.447069102047;-4756.957631958778;8.797279874903325;166.2842454568363;-33416.666666666664;33582.9509121235
0.23600000000000018;-451624406.0;-431848278.0;-999570.0;-4694.1392902545485;-4748.160352083874;9.731772981827817;326.94471187460294;-32250.0;32576.944711874603
0.24000000000000019;-470396617.0;-450801992.0;-822414.0;-4693.052536874241;-4738.428579102047;8.925486847498178;271.6883450768819;-31083.333333333332;31355.021678410216
0.2440000000000002;-489166375.0;-469720004.0;-676613.0;-4692.439369854584;-4729.503092254548;7.356196380307665;153.2917549143349;-29666.666666666668;29819.958421581003
0.2480000000000002;-507935277.0;-488608591.0;-557784.0;-4692.225221713707;-4722.146895874241;5.722814019656653;53.53703521927855;-28333.333333333332;28386.870368552612
0.25200000000000017;-526704219.0;-507474287.0;-460990.0;-4692.235186136226;-4716.424081854584;4.376290140877245;-2.491105629815138;-27000.0;26997.508894370185
0.25600000000000017;-545473499.0;-526322478.0;-381741.0;-4692.3198878459625;-4712.047791713707;3.39774257748104;-21.17542743417289;-25666.666666666668;25645.491239232495
0.2600000000000002;-564243082.0;-545157078.0;-316421.0;-4692.395559350187;-4708.650049136226;2.7240582902632013;-18.91787605609352;-24250.0;24231.082123943906
0.2640000000000002;-583012824.0;-563980781.0;-262301.0;-4692.435181393826;-4705.925990845963;2.2514884957754475;-9.905510909675286;-22916.666666666668;22906.76115575699
0.2680000000000002;-601782599.0;-582795479.0;-217345.0;-4692.443580208308;-4703.674502350187;1.8934859563614737;-2.0997036206154007;-21583.333333333332;21581.23362971272
0.2720000000000002;-620552343.0;-601602603.0;-179996.0;-4692.435634282799;-4701.781016393826;1.5976081855178563;1.9864813773438073;-20416.666666666668;20418.65314804401
0.2760000000000002;-639322040.0;-620403336.0;-149007.0;-4692.424016861309;-4700.183408208308;1.3404729255089478;2.904355372493228;-19083.333333333332;19086.237688705827
0.2800000000000002;-658091702.0;-639198707.0;-123333.0;-4692.4153729736845;-4698.842935282799;1.115599421490515;2.1609719060506904;-17833.333333333332;17835.494305239383
0.2840000000000002;-676861348.0;-657989616.0;-102086.0;-4692.411256238553;-4697.727335861308;0.9222648876238964;1.0291837829754513;-16500.0;16501.029183782975
0.2880000000000002;-695630991.0;-676776836.0;-84512.0;-4692.410543147057;-4696.805070973684;0.7597987351318807;0.17827287388172408;-15250.0;15250.178272873882
0.2920000000000002;-714400638.0;-695561017.0;-69974.0;-4692.411465131402;-4696.045272238553;0.625847091495416;-0.23049608626024565;-14000.0;13999.76950391374
0.2960000000000002;-733170289.0;-714342694.0;-57944.0;-4692.412680889356;-4695.419425147057;0.5163680156547343;-0.30393948850360175;-12750.0;12749.696060511496
0.3000000000000002;-751939944.0;-733122306.0;-47983.0;-4692.413541122802;-4694.903057131402;0.42710724204607686;-0.21505836139112944;-11500.0;11499.784941638609
0.3040000000000002;-770709601.0;-751900209.0;-39735.0;-4692.413925358431;-4694.475949889356;0.35380376655484724;-0.09605890727470978;-10166.666666666666;10166.570607759391
0.3080000000000002;-789479258.0;-770676697.0;-32904.0;-4692.413970911762;-4694.1221461228015;0.2933487643704211;-0.01138833272307238;-8916.666666666666;8916.655278333943
0.3120000000000002;-808248914.0;-789452012.0;-27246.0;-4692.413864336438;-4693.828797358431;0.2432484466689857;0.02664383100636769;-7666.666666666667;7666.693310497673
0.3160000000000002;-827018570.0;-808226354.0;-22560.0;-4692.41373909479;-4693.585548911762;0.20160457532438159;0.031310411941376515;-6500.0;6500.031310411941
0.32000000000000023;-845788226.0;-826999889.0;-18681.0;-4692.413655485967;-4693.383944336438;0.16692224164762592;0.0209022057333641;-5333.333333333333;5333.354235539066
0.32400000000000023;-864557881.0;-845772757.0;-15469.0;-4692.413621185318;-4693.21702209479;0.1381996088230153;0.008575162155466387;-4166.666666666667;4166.675241828822
0.32800000000000024;-883327536.0;-864545072.0;-12809.0;-4692.413619950381;-4693.078822485967;0.1144143006486047;0.0003087343429797329;-3166.6666666666665;3166.6669754010095
0.33200000000000024;-902097192.0;-883316929.0;-10607.0;-4692.413632378211;-4692.9644081853185;0.09468723493773723;-0.003106957592535764;-2166.6666666666665;2166.663559709074
0.33600000000000024;-920866847.0;-902088407.0;-8785.0;-4692.413645396617;-4692.869720950381;0.0783335721689582;-0.003254601324442774;-1416.6666666666667;1416.6634120653423
0.34000000000000025;-939636503.0;-920859572.0;-7275.0;-4692.41365356584;-4692.791387378212;0.0649169815951609;-0.0020423058231244795;-666.6666666666666;666.6646243608435
0.34400000000000025;-958406158.0;-939630477.0;-6026.0;-4692.413656612641;-4692.726470396617;0.05369883077673876;-0.0007617002211190993;-166.66666666666666;166.66590496644554
0.34800000000000025;-977175814.0;-958401168.0;-4990.0;-4692.413656429038;-4692.67277156584;0.04454495319896523;4.5900605982751586e-05;166.66666666666666;-166.66662076606067
0.35200000000000026;-995945469.0;-977171680.0;-4134.0;-4692.413655030491;-4692.628226612641;0.036808183602261124;0.00034963682082889136;333.3333333333333;-333.3329836965125
0.35600000000000026;-1014715125.0;-995942045.0;-3424.0;-4692.4136536942215;-4692.591418429039;0.03053139854728215;0.00033406740840291604;416.6666666666667;-416.6663325992583
0.36000000000000026;-1033484780.0;-1014712288.0;-2837.0;-4692.413652904716;-4692.560887030491;0.025242336269911902;0.00019737626644200645;500.0;-499.99980262373356
0.36400000000000027;-1052254436.0;-1033482430.0;-2350.0;-4692.413652641299;-4692.535644694221;0.02094178950483183;6.58542376186233e-05;500.0;-499.9999341457624
0.36800000000000027;-1071024091.0;-1052252488.0;-1948.0;-4692.413652690395;-4692.514702904717;0.01728626341719064;-1.227385837410111e-05;500.0;-500.0000122738584
0.3720000000000003;-1089793747.0;-1071022477.0;-1614.0;-4692.413652844582;-4692.497416641299;0.014361950904458354;-3.8546886571566574e-05;416.6666666666667;-416.66670521355326
0.3760000000000003;-1108563112.0;-1089792409.0;-1338.0;-4692.34114689447;-4692.483054690395;0.011867845812957967;18.12648752820678;333.3333333333333;-315.20684580512653
0.3800000000000003;-1127330312.0;-1108562293.0;-819.0;-4691.7998402498115;-4692.471186844582;0.0948229501127571;135.32666116452674;166.66666666666666;-31.340005502139917
0.3840000000000003;-1146089662.0;-1127331798.0;1486.0;-4689.837164268028;-4692.376363894469;0.6404216446580904;490.668995445958;166.66666666666666;324.00232877929136
0.3880000000000003;-1164829488.0;-1146098741.0;9079.0;-4684.956324931101;-4691.735942249811;2.289174981783617;1220.2098342315821;166.66666666666666;1053.5431675649154
0.3920000000000003;-1183529794.0;-1164856528.0;27040.0;-4675.076238125045;-4689.4467672680275;5.653162336926471;2470.0217015140424;166.66666666666666;2303.355034847376
0.3960000000000003;-1202159462.0;-1183591702.0;61908.0;-4657.416755193901;-4683.793604931101;11.379410806055603;4414.870732786085;166.66666666666666;4248.204066119418
0.4000000000000003;-1220674918.0;-1202281358.0;121896.0;-4628.86373292396;-4672.4141941250455;20.238966931144205;7138.255567485203;166.66666666666666;6971.588900818536
0.4040000000000003;-1239021848.0;-1220890058.0;215140.0;-4586.732342993592;-4652.175227193901;32.56251426994095;10532.847482591933;250.0;10282.847482591933
0.4080000000000003;-1257138903.0;-1239368508.0;346660.0;-4529.263622939278;-4619.61271292396;47.78674993036839;14367.18001357849;416.6666666666667;13950.513346911825
0.4120000000000003;-1274961705.0;-1257655811.0;516908.0;-4455.700092783106;-4571.825962993592;64.78938405431381;18390.882539043105;666.6666666666666;17724.215872376437
0.4160000000000003;-1292426728.0;-1275683957.0;722252.0;-4366.255747346959;-4507.036578939278;82.39332215617196;22361.086359036788;1083.3333333333333;21277.753025703456
0.4200000000000003;-1309474802.0;-1293382530.0;955802.0;-4262.018110738906;-4424.643256783106;99.48699543614748;26059.409152013133;1500.0;24559.409152013133
0.4240000000000003;-1326053572.0;-1310683155.0;1208353.0;-4144.692428320161;-4325.156261346959;115.09732960805286;29331.4206046864;2166.6666666666665;27164.753938019734
0.4280000000000003;-1342119648.0;-1327523390.0;1469818.0;-4016.518832417722;-4210.058931738906;128.5686774187452;32043.39897560965;2916.6666666666665;29126.73230894298
0.43200000000000033;-1357641079.0;-1343849351.0;1729703.0;-3880.357387356616;-4081.4902543201606;139.34865090243875;34040.361265276486;3833.3333333333335;30207.027931943154
0.43600000000000033;-1372598445.0;-1359617917.0;1976838.0;-3739.341312111843;-3942.141603417722;146.78825006110583;35254.0188111933;4750.0;30504.018811193306
0.44000000000000034;-1386983021.0;-1374799330.0;2200885.0;-3596.1439954863977;-3795.353353356616;150.65009624477307;35799.329156361295;5833.333333333333;29965.995823027963
0.44400000000000034;-1400793046.0;-1389378143.0;2395122.0;-3452.5059349423323;-3644.703257111843;151.54950762544513;35909.51513601635;7000.0;28909.51513601635
0.44800000000000034;-1414030020.0;-1403350757.0;2557711.0;-3309.2434151945067;-3493.153749486398;150.6293875440656;35815.629936956386;8250.0;27565.629936956386
0.45200000000000035;-1426696150.0;-1416720854.0;2690834.0;-3166.532458240157;-3342.5243619423322;148.9868087478253;35677.739238587375;9416.666666666666;26261.07257192071
0.45600000000000035;-1438793100.0;-1429495004.0;2798854.0;-3024.2373221341036;-3193.537553194507;147.35581695434985;35573.78402651341;10583.333333333334;24990.450693180075
0.46000000000000035;-1450321706.0;-1441679730.0;2886630.0;-2882.1512999461193;-3046.181736240157;146.0695041060535;35521.50554699608;11666.666666666666;23854.838880329415
0.46400000000000036;-1461282176.0;-1453280178.0;2958472.0;-2740.117429588718;-2900.1122321341036;145.17522818798443;35508.467589350286;12833.333333333334;22675.134256016954
0.46800000000000036;-1471674405.0;-1464299926.0;3017750.0;-2598.0572083508637;-2754.937003946119;144.58282435740102;35515.055309463605;14000.0;21515.055309463605
0.47200000000000036;-1481498215.0;-1474741342.0;3066937.0;-2455.9521551244056;-2610.354179588718;144.17526223785444;35526.263306614506;15166.666666666666;20359.596639947842
0.47600000000000037;-1490753470.0;-1484606057.0;3107842.0;-2313.8137461935594;-2466.1789173508637;143.86396822645793;35534.602232711564;16333.333333333334;19201.26889937823
0.48000000000000037;-1499440111.0;-1493895316.0;3141846.0;-2171.660246649332;-2322.3149491244058;143.60058093084626;35538.37488605689;17416.666666666668;18121.708219390217
0.4840000000000004;-1507558132.0;-1502610173.0;3170062.0;-2029.505141567824;-2178.7143681935595;143.3667875442277;35538.776270376955;18500.0;17038.776270376955
0.4880000000000004;-1515107551.0;-1510751563.0;3193431.0;-1887.354570213508;-2035.3475806493318;143.1599720815077;35537.64283857902;19583.333333333332;15954.309505245685
0.4920000000000004;-1522088388.0;-1518320313.0;3212762.0;-1745.2092655843944;-1892.187608567824;142.98180435431618;35536.32615727838;20750.0;14786.326157278381
0.4960000000000004;-1528500659.0;-1525317136.0;3228748.0;-1603.067484475342;-1749.205804213508;142.83270262911356;35535.445277263076;21916.666666666668;13618.778610596411
0.5000000000000003;-1534344368.0;-1531742628.0;3241969.0;-1460.9271632454538;-1606.3731015843944;142.71028410905228;35535.080307472075;23000.0;12535.080307472072
