Zeit[sec];Sollposition[°];Istposition[°];Positionsschleppfehler[°];Sollgeschwindigkeit[°/s];Istgeschwindigkeit[°/s];Geschwindigkeitsdifferenz[°/s];Sollbeschleunigung[°/s*s];Istbeschleunigung[°/s*s];Beschleunigungsdifferenz[°/s*s]
0.0;0.0;5.0;-5.0;-0.0;-0.00021499999999999997;0.0;0.0;0.0;0.0
0.004;0.0;5.0;-5.0;-0.0;-0.00021499999999999997;0.0;0.0;0.0;0.0
0.008;0.0;5.0;-5.0;-0.0;-0.00021499999999999997;0.0;0.0;0.0;0.0
0.012;0.0;5.0;-5.0;-0.0;-0.00021499999999999997;0.0;0.0;0.0;0.0
0.016;0.0;5.0;-5.0;-0.0;-0.00021499999999999997;0.0;0.0;0.0;0.0
0.02;0.0;5.0;-5.0;-0.0;-0.00021499999999999997;0.0;0.0;0.0;0.0
0.024;0.0;5.0;-5.0;-0.0;-0.00021499999999999997;0.0;0.0;0.0;0.0
0.028;0.0;5.0;-5.0;-0.0;-0.00021499999999999997;0.0;0.0;0.0;0.0
0.032;0.0;5.0;-5.0;-0.0;-0.00021499999999999997;0.0;0.0;0.0;0.0
0.036000000000000004;0.0;5.0;-5.0;-0.0;-0.00021499999999999997;0.0;0.0;0.0;0.0
0.04000000000000001;0.0;5.0;-5.0;-0.0;-0.00021499999999999997;0.0;0.0;0.0;0.0
0.04400000000000001;0.0;5.0;-5.0;-0.0;-0.00021499999999999997;0.0;0.0;0.0;0.0
0.048000000000000015;0.0;5.0;-5.0;-0.0;-0.00021499999999999997;0.0;0.0;0.0;0.0
0.05200000000000002;0.0;5.0;-5.0;-0.0;-0.00021499999999999997;0.0;0.0;0.0;0.0
0.05600000000000002;-239.0;5.0;-5.0;-0.05975378241017623;-0.00021499999999999997;0.0;-14.938445602544057;0.0;-14.938445602544057
0.060000000000000026;-2620.0;5.0;-244.0;-0.5954866485849623;-0.00021499999999999997;-0.07003078241017623;-133.93321654369652;0.0;-133.93321654369652
0.06400000000000003;-14328.0;-275.0;-2345.0;-2.9269376297660252;-0.07024578241017623;-0.626075866174786;-582.8627452952658;0.0;-582.8627452952658
0.06800000000000003;-53026.0;-3060.0;-11268.0;-9.674526873043495;-0.6963216485849623;-2.715139981181063;-1686.8973108193675;0.0;-1686.8973108193675
0.07200000000000004;-151197.0;-16705.0;-36321.0;-24.542666403238165;-3.411461629766025;-7.82486824327747;-3717.0348825486676;0.0;-3717.0348825486676
0.07600000000000004;-356520.0;-61650.0;-89547.0;-51.33064241888603;-11.236329873043495;-17.15685753019467;-6696.994003911966;0.0;-6696.994003911966
0.08000000000000004;-727365.0;-175222.0;-181298.0;-92.71131308761497;-28.393187403238166;-30.733269015647863;-10345.167667182235;-83.33333333333333;-10261.834333848901
0.08400000000000005;-1326974.0;-411727.0;-315638.0;-149.9022699950817;-59.12645641888603;-47.15729066872894;-14297.739226866683;-250.0;-14047.739226866683
0.08800000000000005;-2220505.0;-836861.0;-490113.0;-223.3827829315488;-106.28374708761497;-64.69338190746673;-18370.128234116775;-500.0;-17870.128234116775
0.09200000000000005;-3474287.0;-1520769.0;-699736.0;-313.4453781968808;-170.9771289950817;-82.49430193646711;-22515.648816333007;-833.3333333333334;-21682.31548299967
0.09600000000000006;-5153733.0;-2534654.0;-939633.0;-419.86152738224206;-253.4714309315488;-100.37816626533203;-26604.03729634031;-1333.3333333333333;-25270.703963006974
0.10000000000000006;-7319160.0;-3950052.0;-1203681.0;-541.3568356440451;-353.84959719688084;-117.77021318536123;-30373.827065450754;-2000.0;-28373.827065450754
0.10400000000000006;-10021780.0;-5836531.0;-1482629.0;-675.6549382941404;-471.61981038224206;-133.49007226180305;-33574.525662523825;-2833.3333333333335;-30741.192329190493
0.10800000000000007;-13300706.0;-8256970.0;-1764810.0;-819.7315085964445;-605.1098826440451;-146.4318856500953;-36019.14257557604;-3750.0;-32269.14257557604
0.11200000000000007;-17180544.0;-11263137.0;-2037569.0;-969.9593757955292;-751.5417682941404;-155.8052073023041;-37556.96679977117;-4750.0;-32806.96679977117
0.11600000000000008;-21670264.0;-14892524.0;-2288020.0;-1122.4299304428646;-907.3469755964445;-160.99726019908462;-38117.63866183384;-5916.666666666667;-32200.97199516717
0.12000000000000008;-26762835.0;-19165900.0;-2504364.0;-1273.1426921360244;-1068.3442357955291;-161.77334664733553;-37678.19042328995;-7083.333333333333;-30594.857089956615
0.12400000000000008;-32434421.0;-24086370.0;-2676465.0;-1417.8963934433293;-1230.1175824428647;-158.1131046931598;-36188.42532682623;-8416.666666666666;-27771.75866015957
0.12800000000000009;-38644656.0;-29639292.0;-2795129.0;-1552.5586740287097;-1388.2306871360245;-149.85625330730477;-33665.57014634509;-9583.333333333334;-24082.236813011754
0.1320000000000001;-45339542.0;-35791639.0;-2853017.0;-1673.7214934329068;-1538.0869404433292;-137.15146458538038;-30290.70485104927;-10833.333333333334;-19457.371517715936
0.1360000000000001;-52455829.0;-42492592.0;-2846950.0;-1779.071694954553;-1675.2384050287096;-120.90193840419715;-26337.550380411587;-11916.666666666666;-14420.883713744919
0.1400000000000001;-59925298.0;-49677153.0;-2778676.0;-1867.367069325451;-1796.1403434329068;-102.41441952164632;-22073.84359272447;-13083.333333333334;-8990.510259391138
0.1440000000000001;-67678488.0;-57271372.0;-2653926.0;-1938.2975306543067;-1898.554762954553;-82.9311243708978;-17732.615332213925;-14000.0;-3732.615332213925
0.1480000000000001;-75647635.0;-65197315.0;-2481173.0;-1992.286489283615;-1981.485887325451;-63.50208232885575;-13497.2396573271;-14833.333333333334;1336.093676006234
0.1520000000000001;-83768935.0;-73377266.0;-2270369.0;-2030.3249391363995;-2044.9879696543067;-44.92438662930863;-9509.612463196107;-15416.666666666666;5907.0542034705595
0.1560000000000001;-91985719.0;-81736915.0;-2032020.0;-2054.19598625288;-2089.9123562836153;-27.789442852784305;-5967.7617791201665;-15916.666666666666;9948.9048875465
0.16000000000000011;-100252938.0;-90207722.0;-1777997.0;-2066.804660798624;-2117.7017991363996;-12.948058116480752;-3152.168636435931;-16250.0;13097.83136356407
0.16400000000000012;-108540058.0;-98730321.0;-1522617.0;-2071.779876444852;-2130.6498572528803;-1.6273345457434516;-1243.8039115570518;-16500.0;15256.196088442948
0.16800000000000012;-116830122.0;-107259429.0;-1280629.0;-2072.5158454861034;-2132.277191798624;5.43026835377168;-183.99226031283433;-16583.333333333332;16399.3410730205
0.17200000000000013;-125116162.0;-115766816.0;-1063306.0;-2071.5099531777773;-2126.846923444852;8.60891995874863;251.47307708152766;-16666.666666666668;16918.139743748194
0.17600000000000013;-133397102.0;-124239768.0;-876394.0;-2070.2349278010925;-2118.2380034861035;9.043108308326282;318.75634417122;-16583.333333333332;16902.08967750455
0.18000000000000013;-141674400.0;-132676547.0;-720555.0;-2069.3244067646115;-2109.194895177777;7.976102376684594;227.6302591202466;-16583.333333333332;16810.96359245358
0.18400000000000014;-149949928.0;-141081422.0;-592978.0;-2068.881789866182;-2101.2187928010926;6.396332036480999;110.65422460740137;-16500.0;16610.654224607402
0.18800000000000014;-158225021.0;-149460711.0;-489217.0;-2068.773249789537;-2094.8224607646116;4.904339898429953;27.135019161164564;-16416.666666666668;16443.80168582783
0.19200000000000014;-166500318.0;-157820383.0;-404638.0;-2068.8240245119023;-2089.9181208661817;3.745437076644521;-12.693680591269185;-16333.333333333334;16320.639652742066
0.19600000000000015;-174775954.0;-166165073.0;-335245.0;-2068.9090557611776;-2086.172683789537;2.933124277634761;-21.25781231882229;-16333.333333333334;16312.07552101451
0.20000000000000015;-183051833.0;-174498031.0;-277923.0;-2068.9694584527197;-2083.2395595119024;2.379814750725018;-15.100672885523636;-16333.333333333334;16318.232660447811
0.20400000000000015;-191327808.0;-182821469.0;-230364.0;-2068.9938817810817;-2080.8597447611774;1.9846343084577711;-6.105832090497643;-16250.0;16243.894167909502
0.20800000000000016;-199603782.0;-191136969.0;-190839.0;-2068.9931933013263;-2078.8751104527196;1.6751516716381047;0.17211993883847754;-16083.333333333334;16083.505453272173
0.21200000000000016;-207879711.0;-199445768.0;-158014.0;-2068.982207002631;-2077.1999587810815;1.412163479755236;2.746574673778923;-15916.666666666666;15919.413241340444
0.21600000000000016;-216155596.0;-207748919.0;-130792.0;-2068.971170155608;-2075.7877953013262;1.1815322986949468;2.759211755801516;-15750.0;15752.759211755802
0.22000000000000017;-224431454.0;-216047344.0;-108252.0;-2068.964330779562;-2074.6062630026313;0.9802568470231563;1.7098440115432822;-15333.333333333334;15335.043177344876
0.22400000000000017;-232707301.0;-224341848.0;-89606.0;-2068.961803316252;-2073.626006155608;0.8086173760461861;0.6318658274722111;-14833.333333333334;14833.965199160806
0.22800000000000017;-240983150.0;-232633117.0;-74184.0;-2068.9619729834617;-2072.817388779562;0.6656734633102133;-0.042416802443767665;-14166.666666666666;14166.624249864222
0.23200000000000018;-249259003.0;-240921723.0;-61427.0;-2068.9631510121335;-2072.1517153162517;0.5483813327900862;-0.29450716795054177;-13416.666666666666;13416.372159498715
0.23600000000000018;-257534860.0;-249208136.0;-50867.0;-2068.964272713455;-2071.6033339834617;0.4529019713281741;-0.28042533040206763;-12500.0;12499.719574669598
0.24000000000000019;-265810720.0;-257492737.0;-42123.0;-2068.9649358580773;-2071.1504320121335;0.3748702986781609;-0.16578615554863063;-11416.666666666666;11416.500880511117
0.2440000000000002;-274086581.0;-265775839.0;-34881.0;-2068.965158750958;-2070.7755617134553;0.31074285537806645;-0.0557232201572333;-10333.333333333334;10333.277610113177
0.2480000000000002;-282362442.0;-274057698.0;-28883.0;-2068.9651201052734;-2070.4648188580773;0.25769110711917165;0.009661421131568204;-9083.333333333334;9083.342994754465
0.25200000000000017;-290638302.0;-282338526.0;-23916.0;-2068.96499288195;-2070.207127750958;0.21361964568450276;0.031805830872144725;-7833.333333333333;7833.365139164205
0.25600000000000017;-298914162.0;-290618500.0;-19802.0;-2068.9648803359646;-2069.9935081052736;0.17702922332364324;0.02813649632571469;-6500.0;6500.028136496326
0.2600000000000002;-307190022.0;-298897765.0;-16397.0;-2068.9648177273752;-2069.81647888195;0.1465275459854638;0.015652147340006195;-5333.333333333333;5333.348985480673
0.2640000000000002;-315465882.0;-307176444.0;-13578.0;-2068.9647995236783;-2069.6699513359645;0.1212796085892478;0.004550924245450005;-4166.666666666667;4166.671217590912
0.2680000000000002;-323741741.0;-315454638.0;-11244.0;-2068.9648061419225;-2069.548671727375;0.10038020369711376;-0.0016545610606044647;-3166.6666666666665;3166.665012105606
0.2720000000000002;-332017601.0;-323732431.0;-9310.0;-2068.9648200708602;-2069.448291523678;0.08315538175565962;-0.003482234433249687;-2166.6666666666665;2166.6631844322333
0.2760000000000002;-340293461.0;-332009891.0;-7710.0;-2068.9648314739075;-2069.3651361419224;0.06878607106227719;-0.0028507618026196724;-1416.6666666666667;1416.6638159048641
0.2800000000000002;-348569320.0;-340287076.0;-6385.0;-2068.9648374175813;-2069.29635007086;0.056963596952755324;-0.0014859184602755704;-750.0;749.9985140815397
0.2840000000000002;-356845180.0;-348564033.0;-5287.0;-2068.964838865302;-2069.2393864739074;0.04720805632632619;-0.0003619302333390806;-250.0;249.99963806976666
0.2880000000000002;-365121040.0;-356840801.0;-4379.0;-2068.9648379568052;-2069.192178417581;0.03904255227871545;0.00022712424652127083;83.33333333333333;-83.33310620908681
0.2920000000000002;-373396900.0;-365117413.0;-3627.0;-2068.9648364647155;-2069.1531358653024;0.032336908497200056;0.0003730224307219032;333.3333333333333;-333.3329603109026
0.2960000000000002;-381672759.0;-373393896.0;-3004.0;-2068.9648353228995;-2069.120798956805;0.026790492089730833;0.00028545400709845126;416.6666666666667;-416.6663812126596
0.3000000000000002;-389948619.0;-381670272.0;-2487.0;-2068.964834766636;-2069.0940084647154;0.022232141815948125;0.0001390658326272387;500.0;-499.9998609341674
0.3040000000000002;-398224479.0;-389946559.0;-2060.0;-2068.964834660797;-2069.0717763228995;0.018361556263243983;2.645981567184208e-05;500.0;-499.9999735401843
0.3080000000000002;-406500338.0;-398222772.0;-1707.0;-2068.964834775622;-2069.0534147666363;0.01517910583925186;-2.8706267585221212e-05;416.6666666666667;-416.66669537293427
0.3120000000000002;-414776198.0;-406498924.0;-1414.0;-2068.9648349335102;-2069.038235660797;0.012598885175066243;-3.9472070056945086e-05;333.3333333333333;-333.33337280540337
0.3160000000000002;-423052058.0;-414775026.0;-1172.0;-2068.964835046812;-2069.025636775622;0.01040584211159512;-2.83254166788538e-05;250.0;-250.00002832541668
0.32000000000000023;-431327918.0;-423051086.0;-972.0;-2068.9648350981306;-2069.0152309335103;0.008599886698448245;-1.282967332372209e-05;166.66666666666666;-166.66667949633998
0.32400000000000023;-439603777.0;-431327112.0;-806.0;-2068.9648351047535;-2069.006631046812;0.007137948681247508;-1.6557351045776159e-06;166.66666666666666;-166.66666832240176
0.32800000000000024;-447879637.0;-439603109.0;-668.0;-2068.964835090886;-2068.9994930981306;0.005933993377311708;3.466880116320681e-06;83.33333333333333;-83.33332986645321
0.33200000000000024;-456155497.0;-447879083.0;-554.0;-2068.9648350744224;-2068.9935591047533;0.00490201386719491;4.115918272873387e-06;166.66666666666666;-166.66666255074838
0.33600000000000024;-464431357.0;-456155037.0;-460.0;-2068.9648350631824;-2068.988657090886;0.004042016463699838;2.8099975679651834e-06;83.33333333333333;-83.33333052333576
0.34000000000000025;-472707216.0;-464430975.0;-382.0;-2068.964835058534;-2068.9846150744224;0.003354011239935062;1.162106855190359e-06;83.33333333333333;-83.33333217122647
0.34400000000000025;-480983076.0;-472706900.0;-316.0;-2068.964835058316;-2068.9812610631825;0.002838004648765491;5.445599526865408e-08;83.33333333333333;-83.33333327887733
0.34800000000000025;-489258936.0;-480982813.0;-263.0;-2068.964835059871;-2068.9784230585337;0.0022790002176407143;-3.886952981702052e-07;83.33333333333333;-83.33333372202863
0.35200000000000026;-497534796.0;-489258717.0;-219.0;-2068.9648350615967;-2068.976144058316;0.00189199844498944;-4.3144154915353283e-07;83.33333333333333;-83.33333376477488
0.35600000000000026;-505810655.0;-497534614.0;-182.0;-2068.9648350627313;-2068.974252059871;0.0015909982744233275;-2.83648660115432e-07;0.0;-2.83648660115432e-07
0.36000000000000026;-514086515.0;-505810504.0;-151.0;-2068.9648350631046;-2068.9726610615967;0.00133299886556415;-9.333689376944676e-08;0.0;-9.333689376944676e-08
0.36400000000000027;-522362375.0;-514086389.0;-126.0;-2068.9648350631046;-2068.971328062731;0.0010749996263257344;0.0;0.0;0.0
0.36800000000000027;-530638234.0;-522362270.0;-105.0;-2068.9648350629022;-2068.970253063105;0.0009030000001075678;5.059064278611913e-08;0.0;5.059064278611913e-08
0.3720000000000003;-538914094.0;-530638147.0;-87.0;-2068.9648350627313;-2068.9693500631047;0.0007740002024547721;4.274625098332763e-08;0.0;4.274625098332763e-08
0.3760000000000003;-547189954.0;-538914021.0;-73.0;-2068.9648350626535;-2068.9685760629022;0.0006020001710567158;1.944044925039634e-08;0.0;1.944044925039634e-08
0.3800000000000003;-555465814.0;-547189892.0;-62.0;-2068.9648350626535;-2068.967974062731;0.000473000077818142;0.0;0.0;0.0
0.3840000000000003;-563741673.0;-555465762.0;-52.0;-2068.9648350626226;-2068.9675010626534;0.00043000000005122274;7.73070496506989e-09;0.0;7.73070496506989e-09
0.3880000000000003;-572017533.0;-563741630.0;-43.0;-2068.9648350626535;-2068.9670710626533;0.000387000030514173;-7.73070496506989e-09;0.0;-7.73070496506989e-09
0.3920000000000003;-580293393.0;-572017496.0;-37.0;-2068.964835062591;-2068.966684062623;0.0002579999691079138;1.5575096767861396e-08;0.0;1.5575096767861396e-08
0.3960000000000003;-588569253.0;-580293361.0;-32.0;-2068.964835062716;-2068.9664260626537;0.00021500006232599844;-3.115019353572279e-08;0.0;-3.115019353572279e-08
0.4000000000000003;-596845112.0;-588569225.0;-28.0;-2068.964835062591;-2068.9662110625914;0.00017199987541971495;3.115019353572279e-08;0.0;3.115019353572279e-08
0.4040000000000003;-605120972.0;-596845089.0;-23.0;-2068.964835062716;-2068.966039062716;0.00021500012462638551;-3.115019353572279e-08;0.0;-3.115019353572279e-08
0.4080000000000003;-613396832.0;-605120952.0;-20.0;-2068.964835062591;-2068.9658240625913;0.00012899987541459268;3.115019353572279e-08;0.0;3.115019353572279e-08
0.4120000000000003;-621672692.0;-613396814.0;-18.0;-2068.9648350626535;-2068.965695062716;8.600012461101869e-05;-1.5575096767861396e-08;0.0;-1.5575096767861396e-08
0.4160000000000003;-629948551.0;-621672676.0;-16.0;-2068.9648350626226;-2068.9656090625913;8.599993770985748e-05;7.73070496506989e-09;83.33333333333333;-83.33333332560262
0.4200000000000003;-638224411.0;-629948538.0;-13.0;-2068.9648350626226;-2068.9655230626536;0.00012900003093818668;0.0;83.33333333333333;-83.33333333333333
0.4240000000000003;-646500271.0;-638224399.0;-12.0;-2068.964835062685;-2068.9653940626226;4.3000000005122274e-05;-1.5575096767861396e-08;83.33333333333333;-83.33333334890843
0.4280000000000003;-654776029.0;-646500260.0;-11.0;-2068.9394194448523;-2068.9653510626226;4.29999377047352e-05;6.353904458137549;0.0;6.353904458137549
0.43200000000000033;-663051028.0;-654776121.0;92.0;-2068.7496747566947;-2068.965308062685;0.029844617832623044;47.436172039397206;0.0;47.436172039397206
0.43600000000000033;-671323275.0;-663051862.0;834.0;-2068.0616963286284;-2068.9354634448523;0.22165068815775157;171.9946070165861;0.0;171.9946070165861
0.44000000000000034;-679588150.0;-671326717.0;3442.0;-2066.2185413549605;-2068.7138127566946;0.8001224280660608;460.78874341696974;0.0;460.78874341696974
0.44400000000000034;-687835221.0;-679598371.0;10221.0;-2061.76777916794;-2067.9136903286285;2.134651973668042;1112.690546755175;0.0;1112.690546755175
0.44800000000000034;-696043210.0;-687861487.0;26266.0;-2051.9971436880437;-2065.7790383549604;5.140697187020578;2442.658869974025;0.0;2442.658869974025
0.45200000000000035;-704176453.0;-696104040.0;60830.0;-2033.3105416413152;-2060.63834116794;11.25688747989625;4671.650511682117;0.0;4671.650511682117
0.45600000000000035;-712185277.0;-704301565.0;125112.0;-2002.2059770115463;-2049.3814536880436;21.450728046728273;7776.141157442225;83.33333333333333;7692.807824108892
0.46000000000000035;-720009138.0;-712413287.0;228010.0;-1955.965073444174;-2027.9307256413153;35.52917862976892;11560.22589184306;166.66666666666666;11393.559225176394
0.46400000000000036;-727580616.0;-720382893.0;373755.0;-1892.869408305562;-1992.4015470115464;52.50793856737232;15773.916284653013;333.3333333333333;15440.582951319679
0.46800000000000036;-734829365.0;-728142467.0;561851.0;-1812.1873743193125;-1939.893608444174;71.18379313861215;20170.508496562376;583.3333333333334;19587.175163229043
0.47200000000000036;-741685355.0;-735617306.0;787941.0;-1713.997220887838;-1868.709815305562;90.40390398624936;24547.53835786863;1083.3333333333333;23464.2050245353
0.47600000000000037;-748081449.0;-742730529.0;1045174.0;-1599.023593933475;-1778.3059113193126;109.25117243147452;28743.40673859075;1666.6666666666667;27076.740071924083
0.48000000000000037;-753957009.0;-749406747.0;1325298.0;-1468.8898464258225;-1669.054738887838;127.01895895436314;32533.43687691313;2333.3333333333335;30200.103543579797
0.4840000000000004;-759262864.0;-755574890.0;1617881.0;-1326.4637495488175;-1542.035779933475;142.71481650765236;35606.52421925124;3166.6666666666665;32439.857552584574
0.4880000000000004;-763965197.0;-761172173.0;1909309.0;-1175.5831012201004;-1399.3209634258226;154.95750087700503;37720.16208217929;4083.3333333333335;33636.828748845954
0.4920000000000004;-768047490.0;-766149626.0;2184429.0;-1020.5731587780217;-1244.3634625488176;162.71080832871712;38752.48561051967;5250.0;33502.48561051967
0.4960000000000004;-771511620.0;-770476236.0;2428746.0;-866.0324119812386;-1081.6526542201004;165.51557344207868;38635.18669919577;6416.666666666667;32218.520032529104
0.5000000000000003;-774377449.0;-774140784.0;2629164.0;-716.4572165933384;-916.1370807780218;163.1587207967831;37393.79884697504;7750.0;29643.798846975045
0.5040000000000003;-776680687.0;-777152697.0;2775248.0;-575.8096291647723;-752.9783599812387;155.85680738790018;35161.89685714153;9000.0;26161.896857141528
0.5080000000000003;-778470402.0;-779541183.0;2860496.0;-447.42874346495176;-597.1215525933385;144.31325142856616;32095.221424955143;10250.0;21845.221424955143
