Zeit[sec];Sollposition[°];Istposition[°];Positionsschleppfehler[°];Sollgeschwindigkeit[°/s];Istgeschwindigkeit[°/s];Geschwindigkeitsdifferenz[°/s];Sollbeschleunigung[°/s*s];Istbeschleunigung[°/s*s];Beschleunigungsdifferenz[°/s*s]
0.0;9817499999.0;9817500003.0;-4.0;0.0;-0.00023999999999999998;0.0;0.0;0.0;0.0
0.004;9817499999.0;9817500003.0;-4.0;0.0;-0.00023999999999999998;0.0;0.0;0.0;0.0
0.008;9817499999.0;9817500003.0;-4.0;0.0;-0.00023999999999999998;0.0;0.0;0.0;0.0
0.012;9817499999.0;9817500003.0;-4.0;0.0;-0.00023999999999999998;0.0;0.0;0.0;0.0
0.016;9817499999.0;9817500003.0;-4.0;0.0;-0.00023999999999999998;0.0;0.0;0.0;0.0
0.02;9817499999.0;9817500003.0;-4.0;0.0;-0.00023999999999999998;0.0;0.0;0.0;0.0
0.024;9817499999.0;9817500003.0;-4.0;0.0;-0.00023999999999999998;0.0;0.0;0.0;0.0
0.028;9817499999.0;9817500003.0;-4.0;0.0;-0.00023999999999999998;0.0;0.0;0.0;0.0
0.032;9817499999.0;9817500003.0;-4.0;0.0;-0.00023999999999999998;0.0;0.0;0.0;0.0
0.036000000000000004;9817499999.0;9817500003.0;-4.0;0.0;-0.00023999999999999998;0.0;0.0;0.0;0.0
0.04000000000000001;9817499999.0;9817500003.0;-4.0;0.0;-0.00023999999999999998;0.0;0.0;0.0;0.0
0.04400000000000001;9817499999.0;9817500003.0;-4.0;0.0;-0.00023999999999999998;0.0;0.0;0.0;0.0
0.048000000000000015;9817499999.0;9817500003.0;-4.0;0.0;-0.00023999999999999998;0.0;0.0;0.0;0.0
0.05200000000000002;9817499999.0;9817500003.0;-4.0;0.0;-0.00023999999999999998;0.0;0.0;0.0;0.0
0.05600000000000002;9817499999.0;9817500003.0;-4.0;0.0;-0.00023999999999999998;0.0;0.0;0.0;0.0
0.060000000000000026;9817499999.0;9817500003.0;-4.0;0.0;-0.00023999999999999998;0.0;0.0;0.0;0.0
0.06400000000000003;9817499350.0;9817500003.0;-4.0;-0.1622879750329932;-0.00023999999999999998;0.0;-40.5719937582483;0.0;-40.5719937582483
0.06800000000000003;9817492881.0;9817500003.0;-653.0;-1.6173088716397737;-0.00023999999999999998;-0.2012279750329932;-363.75522415169513;0.0;-363.75522415169513
0.07200000000000004;9817401836.0;9817499198.0;-6317.0;-22.761390467170855;-0.20146797503299319;-1.7948608966067803;-5286.020398882771;0.0;-5286.020398882771
0.07600000000000004;9817206877.0;9817491213.0;-89377.0;-48.739568687609136;-1.9963288716397736;-26.127681595531083;-6494.54455510957;0.0;-6494.54455510957
0.08000000000000004;9816803747.0;9817378717.0;-171840.0;-100.78244235574309;-28.124010467170855;-30.925958220438282;-13010.718417033488;0.0;-13010.718417033488
0.08400000000000005;9816098206.0;9817142518.0;-338771.0;-176.385235388188;-59.04996868760914;-62.05873366813394;-18900.698258111228;-166.66666666666666;-18734.03159144456
0.08800000000000005;9814952033.0;9816658084.0;-559878.0;-286.54344557633374;-121.10870235574308;-88.86921303244492;-27539.552547036437;-500.0;-27039.552547036437
0.09200000000000005;9813186505.0;9815818173.0;-866140.0;-441.3819506800008;-209.977915388188;-128.53393018814572;-38709.62627591676;-1083.3333333333333;-37626.29294258343
0.09600000000000006;9810619284.0;9814464126.0;-1277621.0;-641.8052872397701;-338.5118455763337;-179.52736510366708;-50105.83413994233;-1750.0;-48355.83413994233
0.10000000000000006;9807073551.0;9812391970.0;-1772686.0;-886.433185398848;-518.0392106800008;-230.12723655976936;-61156.974539769464;-2750.0;-58406.974539769464
0.10400000000000006;9802383300.0;9809399305.0;-2325754.0;-1172.5625316073172;-748.1664472397702;-277.81197815907785;-71532.3365521173;-4166.666666666667;-67365.66988545064
0.10800000000000007;9796394786.0;9805295392.0;-2912092.0;-1497.1285690187992;-1025.978425398848;-321.3096262084691;-81141.50935287052;-6000.0;-75141.50935287052
0.11200000000000007;9788981029.0;9799906240.0;-3511454.0;-1853.4390332286853;-1347.2880516073171;-360.52775741148207;-89077.61605247151;-8166.666666666667;-80910.94938580485
0.11600000000000008;9780063431.0;9793074977.0;-4093948.0;-2229.3993686860163;-1707.8158090187992;-391.2601042098861;-93990.08386433274;-10583.333333333334;-83406.75053099942
0.12000000000000008;9769613610.0;9784678674.0;-4615243.0;-2612.455130078176;-2099.0759132286853;-407.2380354573311;-95763.9403480399;-13416.666666666666;-82347.27368137325
0.12400000000000008;9757654475.0;9774653419.0;-5039809.0;-2989.7836401392024;-2506.3139486860164;-408.52972139215944;-94332.12751525661;-16416.666666666668;-77915.46084858995
0.12800000000000009;9744264694.0;9762994045.0;-5339570.0;-3347.4450176304945;-2914.843670078176;-395.31417006102674;-89415.34437282303;-19583.333333333332;-69832.01103948969
0.1320000000000001;9729569563.0;9749753414.0;-5488720.0;-3673.782639078442;-3310.1578401392026;-366.61037749129173;-81584.40536198691;-22750.0;-58834.40536198691
0.1360000000000001;9713726595.0;9735046342.0;-5476779.0;-3960.741901878857;-3676.7682176304943;-325.621161447948;-71739.81570010369;-25833.333333333332;-45906.48236677036
0.1400000000000001;9696913281.0;9719036785.0;-5310190.0;-4203.328190907921;-4002.3893790784423;-276.96392280041437;-60646.57225726615;-28666.666666666668;-31979.905590599476
0.1440000000000001;9679316959.0;9701919372.0;-5006091.0;-4399.080409095075;-4279.353301878857;-224.34034902906478;-48938.05454678841;-31083.333333333332;-17854.721213455075
0.1480000000000001;9661120859.0;9683904598.0;-4587639.0;-4549.0246572841515;-4503.693650907921;-170.64509818715396;-37486.062047269115;-33250.0;-4236.062047269115
0.1520000000000001;9642490026.0;9665207244.0;-4086385.0;-4657.708098894537;-4674.338749095075;-119.86900818907634;-27170.860402596416;-35000.0;7829.139597403582
0.1560000000000001;9623568073.0;9646030413.0;-3540387.0;-4730.488064570256;-4794.207757284152;-75.92356161038515;-18194.991418929705;-36416.666666666664;18221.67524773696
0.16000000000000011;9604472367.0;9626549888.0;-2981815.0;-4773.926328411523;-4870.131318894537;-39.2656456757195;-10859.565960316786;-37333.333333333336;26473.767373016548
0.16400000000000012;9585286861.0;9606912301.0;-2439934.0;-4796.376160928393;-4909.396964570256;-10.925403841266416;-5612.45812921743;-38000.0;32387.54187078257
0.16800000000000012;9566065230.0;9587231012.0;-1944151.0;-4805.407457446519;-4920.322368411523;7.297147483130175;-2257.8241295316275;-38250.0;35992.175870468374
0.17200000000000013;9546837822.0;9567578912.0;-1513682.0;-4806.851936784002;-4913.025220928393;16.79684348187311;-361.1198343705837;-38416.666666666664;38055.54683229608
0.17600000000000013;9527617684.0;9547993999.0;-1156177.0;-4805.034292223183;-4896.2283774465195;20.00582066251809;454.41114020468376;-38333.333333333336;38787.74447353802
0.18000000000000013;9508407182.0;9528489109.0;-871425.0;-4802.625270179378;-4876.222556784001;18.90276456081847;602.2555109511813;-38250.0;38852.25551095118
0.18400000000000014;9489203816.0;9509059830.0;-652648.0;-4800.841099639318;-4857.319792223183;15.535642043804728;446.0426350151465;-38083.333333333336;38529.37596834848
0.18800000000000014;9470004111.0;9489692694.0;-488878.0;-4799.925979724386;-4841.784150179378;11.610370540060103;228.77997873297318;-37916.666666666664;38145.446645399636
0.19200000000000014;9450805469.0;9470371999.0;-367888.0;-4799.660448428293;-4830.173779639318;8.174519914932716;66.38282402309414;-37833.333333333336;37899.71615735643
0.19600000000000015;9431606571.0;9451084002.0;-278533.0;-4799.724215043472;-4821.999259724385;5.62683129609195;-15.94165379469814;-37750.0;37734.058346205304
0.20000000000000015;9412407068.0;9431818513.0;-211942.0;-4799.875559409326;-4816.3724284282935;3.931693384821301;-37.836091463532284;-37750.0;37712.163908536466
0.20400000000000015;9393207096.0;9412568751.0;-161683.0;-4799.992815008112;-4812.440735043472;2.864195634146199;-29.313899696489898;-37666.666666666664;37637.35276697017
0.20800000000000016;9374006912.0;9393330445.0;-123349.0;-4800.045778303351;-4809.576539409326;2.182784401213212;-13.240823809610447;-37500.0;37486.75917619039
0.21200000000000016;9354806710.0;9374100870.0;-93958.0;-4800.0501279467535;-4807.393755008113;1.710496704761681;-1.0874108506868652;-37333.333333333336;37332.245922482645
0.21600000000000016;9335606580.0;9354878137.0;-71427.0;-4800.032386148328;-4805.683258303351;1.3475103565979225;4.435449606262409;-37000.0;37004.43544960626
0.22000000000000017;9316406529.0;9335660795.0;-54215.0;-4800.0123507080625;-4804.335747946753;1.050461798424294;5.008860066482157;-36583.333333333336;36588.34219339982
0.22400000000000017;9297206532.0;9316447654.0;-41125.0;-4799.999070063814;-4803.285286148329;0.8054354402665922;3.320161062219995;-35750.0;35753.32016106222
0.22800000000000017;9278006557.0;9297237735.0;-31203.0;-4799.99361901426;-4802.479850708062;0.6086006442483267;1.3627623884531204;-34750.0;34751.36276238845
0.23200000000000018;9258806582.0;9278030250.0;-23693.0;-4799.993407416842;-4801.871250063814;0.4560510495539347;0.05289935438668181;-33333.333333333336;33333.38623268772
0.23600000000000018;9239606600.0;9258824590.0;-18008.0;-4799.995369042258;-4801.41519901426;0.34131159741809824;-0.49040635394703713;-31583.333333333332;31582.842926979385
0.24000000000000019;9220406609.0;9239620295.0;-13695.0;-4799.997435570934;-4801.073887416842;0.2568183745834176;-0.5166321689102915;-29416.666666666668;29416.150034497758
0.2440000000000002;9201206613.0;9220417027.0;-10418.0;-4799.998741085022;-4800.8170690422585;0.1945534713249799;-0.3263785220042337;-26833.333333333332;26833.006954811328
0.2480000000000002;9182006616.0;9201214537.0;-7924.0;-4799.999236419761;-4800.6225155709335;0.14833448591161869;-0.12383368471091671;-24083.333333333332;24083.20949964862
0.25200000000000017;9162806618.0;9182012641.0;-6025.0;-4799.99921724812;-4800.474181085022;0.11344466526134056;0.0047929102038324345;-21083.333333333332;21083.338126243536
0.25600000000000017;9143606621.0;9162811199.0;-4581.0;-4799.999001518487;-4800.3607364197605;0.08665917164034909;0.05393240826379042;-17916.666666666668;17916.72059907493
0.2600000000000002;9124406625.0;9143610103.0;-3482.0;-4799.998792174101;-4800.27407724812;0.06615572963346494;0.05233609635979519;-14750.0;14750.05233609636
0.2640000000000002;9105206629.0;9124409272.0;-2647.0;-4799.998667288485;-4800.207921518487;0.05030934438582335;0.03122140401501383;-11666.666666666666;11666.697888070681
0.2680000000000002;9086006634.0;9105208642.0;-2013.0;-4799.998624832577;-4800.157612174101;0.03816488561551523;0.010613977110551787;-8916.666666666666;8916.677280643777
0.2720000000000002;9066806638.0;9086008165.0;-1531.0;-4799.998631732755;-4800.119447288485;0.028962455908185802;-0.0017250445125682745;-6333.333333333333;6333.3316082888205
0.2760000000000002;9047606643.0;9066807804.0;-1166.0;-4799.998655506406;-4800.090484832577;0.021893099822591466;-0.005943412816122873;-4250.0;4249.994056587184
0.2800000000000002;9028406647.0;9047607530.0;-887.0;-4799.998676612582;-4800.068591732755;0.016716226348762575;-0.005276544015941909;-2416.6666666666665;2416.6613901226506
0.2840000000000002;9009206652.0;9028407323.0;-676.0;-4799.998688304109;-4800.051875506406;0.012638893823350372;-0.002922881776612485;-1166.6666666666667;1166.6637437848901
0.2880000000000002;8990006656.0;9009207167.0;-515.0;-4799.998691568267;-4800.0392366125825;0.009648308473515499;-0.0008160393463185756;-83.33333333333333;83.33251729398701
0.2920000000000002;8970806660.0;8990007049.0;-393.0;-4799.9986900907525;-4800.029588304109;0.007316735842323396;0.00036937854019925;416.6666666666667;-416.6662972881265
0.2960000000000002;8951606665.0;8970806960.0;-300.0;-4799.998687186251;-4800.022271568267;0.005581477514169819;0.0007261253358592512;833.3333333333334;-833.3326072079975
0.3000000000000002;8932406669.0;8951606894.0;-229.0;-4799.99868473423;-4800.0166900907525;0.00426290450104716;0.0006130053407105152;833.3333333333334;-833.3327203279927
0.3040000000000002;8913206673.0;8932406845.0;-176.0;-4799.998683305256;-4800.012427186251;0.0031824520219743135;0.00035724337976716924;833.3333333333334;-833.3329760899536
0.3080000000000002;8894006678.0;8913206809.0;-136.0;-4799.998682724469;-4800.0092447342295;0.0024014289729166194;0.00014519673641189002;750.0;-749.9998548032636
0.3120000000000002;8874806682.0;8894006782.0;-104.0;-4799.998682587647;-4800.006843305257;0.0019205807875550818;3.4205640986328945e-05;583.3333333333334;-583.3332991276924
0.3160000000000002;8855606686.0;8874806763.0;-81.0;-4799.9986825615315;-4800.004922724469;0.0013801368222630117;6.528807716676965e-06;500.0;-499.9999934711923
0.32000000000000023;8836406691.0;8855606749.0;-63.0;-4799.99868246899;-4800.003542587647;0.001080026115232613;2.3135271476348862e-05;333.3333333333333;-333.33331019806184
0.32400000000000023;8817206695.0;8836406740.0;-49.0;-4799.9986822614865;-4800.0024625615315;0.0008400925407840987;5.1875986173399724e-05;250.0;-249.99994812401383
0.32800000000000024;8798006699.0;8817206734.0;-39.0;-4799.998681965131;-4800.001622468991;0.0006002075042488286;7.40888026484754e-05;166.66666666666666;-166.666592577864
0.33200000000000024;8778806704.0;8798006730.0;-31.0;-4799.998681623074;-4800.0010222614865;0.0004802963549082051;8.55143298394978e-05;83.33333333333333;-83.33324781900349
0.33600000000000024;8759606708.0;8778806728.0;-24.0;-4799.998681268812;-4800.000541965132;0.000420342057623202;8.856545719027054e-05;166.66666666666666;-166.66657810120947
0.34000000000000025;8740406712.0;8759606728.0;-20.0;-4799.9986809190905;-4800.000121623074;0.00024035426213231403;8.743040780245792e-05;83.33333333333333;-83.33324590292553
0.34400000000000025;8721206717.0;8740406729.0;-17.0;-4799.99868057675;-4799.999881268812;0.00018034972163150087;8.558504305256065e-05;83.33333333333333;-83.33324774829028
0.34800000000000025;8702006721.0;8721206731.0;-14.0;-4799.9986802386675;-4799.99970091909;0.00018034234017250128;8.452070687781088e-05;0.0;8.452070687781088e-05
0.35200000000000026;8682806726.0;8702006733.0;-12.0;-4799.998679902572;-4799.99952057675;0.00012033808252454037;8.402389539696742e-05;0.0;8.402389539696742e-05
0.35600000000000026;8663606730.0;8682806736.0;-10.0;-4799.9986795627865;-4799.9994002386675;0.000120336095278617;8.494635039824061e-05;0.0;8.494635039824061e-05
0.36000000000000026;8644406734.0;8663606739.0;-9.0;-4799.998679217323;-4799.999279902572;6.0339785704854876e-05;8.636584425403271e-05;0.0;8.636584425403271e-05
0.36400000000000027;8625206739.0;8644406743.0;-9.0;-4799.99867886817;-4799.9992195627865;3.4546337701613083e-07;8.72882992553059e-05;0.0;8.72882992553059e-05
0.36800000000000027;8606006743.0;8625206747.0;-8.0;-4799.998678513906;-4799.999219217323;6.034915350028314e-05;8.856591193762142e-05;0.0;8.856591193762142e-05
0.3720000000000003;8586806747.0;8606006751.0;-8.0;-4799.998678154819;-4799.99915886817;3.542636477504857e-07;8.977190191217232e-05;0.0;8.977190191217232e-05
0.3760000000000003;8567606752.0;8586806755.0;-8.0;-4799.998677793175;-4799.999158513906;3.590876076486893e-07;9.041082194016781e-05;0.0;9.041082194016781e-05
0.3800000000000003;8548406756.0;8567606759.0;-7.0;-4799.998677428125;-4799.999158154818;6.036164268152788e-05;9.126256372837815e-05;0.0;9.126256372837815e-05
0.3840000000000003;8529206761.0;8548406763.0;-7.0;-4799.99867705825;-4799.999097793176;3.650502549135126e-07;9.24687810766045e-05;0.0;9.24687810766045e-05
0.3880000000000003;8510006765.0;8529206767.0;-6.0;-4799.99867668582;-4799.999097428125;6.036987542756833e-05;9.310747373092454e-05;0.0;9.310747373092454e-05
0.3920000000000003;8490806769.0;8510006771.0;-6.0;-4799.998676308847;-4799.99903705825;3.7242989492369816e-07;9.424320523976348e-05;0.0;9.424320523976348e-05
0.3960000000000003;8471606774.0;8490806775.0;-6.0;-4799.998675929889;-4799.99903668582;3.7697282095905393e-07;9.473956197325606e-05;0.0;9.473956197325606e-05
0.4000000000000003;8452406778.0;8471606779.0;-5.0;-4799.998675545537;-4799.999036308847;6.037895855115494e-05;9.608811524230987e-05;0.0;9.608811524230987e-05
0.4040000000000003;8433206782.0;8452406784.0;-6.0;-4799.998675159196;-4799.998975929889;-5.9615647842292674e-05;9.658515409682877e-05;0.0;9.658515409682877e-05
0.4080000000000003;8414006787.0;8433206788.0;-6.0;-4799.998674768315;-4799.999035545537;3.863406163873151e-07;9.772020348464139e-05;0.0;9.772020348464139e-05
0.4120000000000003;8394806791.0;8414006792.0;-5.0;-4799.998674372892;-4799.999035159196;6.039088111720048e-05;9.885570761980489e-05;0.0;9.885570761980489e-05
0.4160000000000003;8375606796.0;8394806797.0;-6.0;-4799.998673975482;-4799.998974768315;-5.9604577472782694e-05;9.935251910064835e-05;0.0;9.935251910064835e-05
0.4200000000000003;8356406800.0;8375606801.0;-5.0;-4799.998673572962;-4799.999034372892;6.039741037966451e-05;0.00010063013178296387;0.0;0.00010063013178296387
0.4240000000000003;8337206804.0;8356406806.0;-6.0;-4799.998673167035;-4799.998973975482;-5.959747977613006e-05;0.00010148164619749878;0.0;0.00010148164619749878
0.4280000000000003;8318006809.0;8337206810.0;-6.0;-4799.998672759122;-4799.999033572962;4.059265847899951e-07;0.0001019782303046668;0.0;0.0001019782303046668
0.43200000000000033;8298806813.0;8318006814.0;-5.0;-4799.998672346951;-4799.999033167035;6.040791322448058e-05;0.00010304279385309201;0.0;0.00010304279385309201
0.43600000000000033;8279606818.0;8298806819.0;-6.0;-4799.998671930522;-4799.998972759122;-5.9587829127849545e-05;0.00010410735740151722;0.0;0.00010410735740151722
0.44000000000000034;8260406822.0;8279606823.0;-5.0;-4799.998671510119;-4799.999032346951;6.041642973286798e-05;0.0001051007529895287;83.33333333333333;-83.33322823258034
0.44400000000000034;8241206826.0;8260406828.0;-6.0;-4799.998671086592;-4799.998971930521;-5.95795972913038e-05;0.00010588155419100076;83.33333333333333;-83.33322745177914
0.44800000000000034;8222006831.0;8241206832.0;-6.0;-4799.9986706602285;-4799.999031510119;4.2352621676400304e-07;0.00010659096005838364;83.33333333333333;-83.33322674237327
0.45200000000000035;8202806835.0;8222006836.0;-5.0;-4799.998670229322;-4799.999031086592;6.042636414349545e-05;0.00010772669156722259;0.0;0.00010772669156722259
0.45600000000000035;8183606840.0;8202806841.0;-6.0;-4799.9986697955765;-4799.998970660228;-5.956909353699302e-05;0.00010843632480828092;0.0;0.00010843632480828092
0.46000000000000035;8164406844.0;8183606845.0;-5.0;-4799.998669358426;-4799.999030229322;6.043374560249504e-05;0.00010928761184914038;0.0;0.00010928761184914038
0.46400000000000036;8145206848.0;8164406850.0;-6.0;-4799.998668915313;-4799.998969795576;-5.956284985586535e-05;0.0001107782736653462;0.0;0.0001107782736653462
0.46800000000000036;8126006853.0;8145206854.0;-6.0;-4799.998668472201;-4799.999029358426;4.431130946613848e-07;0.00011077804629167076;0.0;0.00011077804629167076
0.47200000000000036;8106806857.0;8126006858.0;-5.0;-4799.998668023978;-4799.999028915313;6.0443112488428596e-05;0.00011205565897398628;0.0;0.00011205565897398628
0.47600000000000037;8087606862.0;8106806863.0;-6.0;-4799.998667571782;-4799.9989684722;-5.955177766736597e-05;0.00011304905456199776;0.0;0.00011304905456199776
0.48000000000000037;8068406866.0;8087606867.0;-5.0;-4799.998667115896;-4799.999028023978;6.0452196521509904e-05;0.00011397150956327096;0.0;0.00011397150956327096
0.4840000000000004;8049206871.0;8068406872.0;-6.0;-4799.998666657738;-4799.998967571782;-5.954411426500883e-05;0.00011453948900452815;0.0;0.00011453948900452815
0.4880000000000004;8030006875.0;8049206876.0;-5.0;-4799.998666194755;-4799.999027115896;6.0458158259280026e-05;0.0001157457063527545;0.0;0.0001157457063527545
0.4920000000000004;8010806879.0;8030006881.0;-6.0;-4799.998665728366;-4799.998966657738;-5.9537017477850895e-05;0.0001165972207672894;0.0;0.0001165972207672894
0.4960000000000004;7991606884.0;8010806885.0;-6.0;-4799.998665259706;-4799.999026194755;4.663888830691576e-07;0.00011716497283487115;0.0;0.00011716497283487115
0.5000000000000003;7972406888.0;7991606889.0;-5.0;-4799.998664787639;-4799.999025728366;6.04686601946014e-05;0.0001180167146230815;0.0;0.0001180167146230815
0.5040000000000003;7953206893.0;7972406894.0;-6.0;-4799.998664310463;-4799.998965259706;-5.952793344476959e-05;0.00011929409993172158;0.0;0.00011929409993172158
