Zeit[sec];Sollposition[°];Istposition[°];Positionsschleppfehler[°];Sollgeschwindigkeit[°/s];Istgeschwindigkeit[°/s];Geschwindigkeitsdifferenz[°/s];Sollbeschleunigung[°/s*s];Istbeschleunigung[°/s*s];Beschleunigungsdifferenz[°/s*s]
0.0;9817499999.0;9817500003.0;-4.0;0.0;-0.00023999999999999998;0.0;0.0;0.0;0.0
0.004;9817499999.0;9817500003.0;-4.0;0.0;-0.00023999999999999998;0.0;0.0;0.0;0.0
0.008;9817499999.0;9817500003.0;-4.0;0.0;-0.00023999999999999998;0.0;0.0;0.0;0.0
0.012;9817499999.0;9817500003.0;-4.0;0.0;-0.00023999999999999998;0.0;0.0;0.0;0.0
0.016;9817499999.0;9817500003.0;-4.0;0.0;-0.00023999999999999998;0.0;0.0;0.0;0.0
0.02;9817499999.0;9817500003.0;-4.0;0.0;-0.00023999999999999998;0.0;0.0;0.0;0.0
0.024;9817499999.0;9817500003.0;-4.0;0.0;-0.00023999999999999998;0.0;0.0;0.0;0.0
0.028;9817499999.0;9817500003.0;-4.0;0.0;-0.00023999999999999998;0.0;0.0;0.0;0.0
0.032;9817499999.0;9817500003.0;-4.0;0.0;-0.00023999999999999998;0.0;0.0;0.0;0.0
0.036000000000000004;9817499999.0;9817500003.0;-4.0;0.0;-0.00023999999999999998;0.0;0.0;0.0;0.0
0.04000000000000001;9817499999.0;9817500003.0;-4.0;0.0;-0.00023999999999999998;0.0;0.0;0.0;0.0
0.04400000000000001;9817499999.0;9817500003.0;-4.0;0.0;-0.00023999999999999998;0.0;0.0;0.0;0.0
0.048000000000000015;9817499999.0;9817500003.0;-4.0;0.0;-0.00023999999999999998;0.0;0.0;0.0;0.0
0.05200000000000002;9817499999.0;9817500003.0;-4.0;0.0;-0.00023999999999999998;0.0;0.0;0.0;0.0
0.05600000000000002;9817499999.0;9817500003.0;-4.0;0.0;-0.00023999999999999998;0.0;0.0;0.0;0.0
0.060000000000000026;9817499999.0;9817500003.0;-4.0;0.0;-0.00023999999999999998;0.0;0.0;0.0;0.0
0.06400000000000003;9817499999.0;9817500003.0;-4.0;0.0;-0.00023999999999999998;0.0;0.0;0.0;0.0
0.06800000000000003;9817431207.0;9817500003.0;-4.0;-17.19811879100644;-0.00023999999999999998;0.0;-4299.52969775161;0.0;-4299.52969775161
0.07200000000000004;9817369594.0;9817500003.0;-68796.0;-15.403345422793453;-0.00023999999999999998;-21.325638791006437;448.6933420532466;0.0;448.6933420532466
0.07600000000000004;9817293667.0;9817414700.0;-45106.0;-18.9817112904217;-21.32587879100644;3.216173368212985;-894.5914669070615;0.0;-894.5914669070615
0.08000000000000004;9817212911.0;9817342262.0;-48595.0;-20.189006327237234;-18.109705422793454;-3.7877058676282473;-301.82375920388347;-83.33333333333333;-218.49042587055015
0.08400000000000005;9817130702.0;9817254673.0;-41762.0;-20.552110715397976;-21.8974112904217;-0.7973150368155331;-90.77609704018563;-83.33333333333333;-7.442763706852304
0.08800000000000005;9817046451.0;9817163895.0;-33193.0;-21.062878956501017;-22.694726327237234;0.15103561183925862;-127.69206027576007;-166.66666666666666;38.97460639090658
0.09200000000000005;9816962458.0;9817073721.0;-27270.0;-20.998222022769024;-22.543690715397975;-0.15538824110304006;16.16423343299811;-166.66666666666666;182.83090009966477
0.09600000000000006;9816885513.0;9816982925.0;-20467.0;-19.236118827278183;-22.699078956501015;0.4728369337319904;440.52579887271025;-250.0;690.5257988727103
0.10000000000000006;9816821058.0;9816894021.0;-8508.0;-16.11379942459887;-22.226242022769025;2.4796431954908407;780.5798506698283;-166.66666666666666;947.2465173364949
0.10400000000000006;9816772168.0;9816815035.0;6023.0;-12.222661301364587;-19.746598827278184;3.9941794026793147;972.7845308085707;-166.66666666666666;1139.4511974752374
0.10800000000000007;9816742914.0;9816752026.0;20142.0;-7.313344205392657;-15.75241942459887;4.7382781232342825;1227.3292739929825;-83.33333333333333;1310.6626073263158
0.11200000000000007;9816734584.0;9816707970.0;34944.0;-2.082472437861469;-11.014141301364587;5.7974370959719295;1307.717941882797;-166.66666666666666;1474.3846085494638
0.11600000000000008;9816746410.0;9816687104.0;47480.0;2.9563265997530057;-5.216704205392658;5.983031767531188;1259.6997594036186;-83.33333333333333;1343.033092736952
0.12000000000000008;9816780363.0;9816690169.0;56241.0;8.488329685259185;0.7663275621385308;5.5644590376144745;1383.0007713765447;-83.33333333333333;1466.3341047098781
0.12400000000000008;9816836754.0;9816715492.0;64871.0;14.09764372242308;6.330786599753005;6.04980308550618;1402.3285092909737;0.0;1402.3285092909737
0.12800000000000009;9816910979.0;9816765014.0;71740.0;18.55632879356319;12.380589685259185;6.021454037163895;1114.6712677850273;83.33333333333333;1031.337934451694
0.1320000000000001;9816996739.0;9816838622.0;72357.0;21.440031114817113;18.40204372242308;4.495705071140108;720.9255803134811;83.33333333333333;637.5922469801477
0.1360000000000001;9817088370.0;9816930212.0;66527.0;22.907705689563826;22.89774879356319;2.533902321253926;366.91864368667825;166.66666666666666;200.2519770200116
0.1400000000000001;9817180979.0;9817031938.0;56432.0;23.152184990594197;25.431651114817114;0.8619745747467107;61.11982525759263;166.66666666666666;-105.54684140907403
0.1440000000000001;9817270406.0;9817137112.0;43867.0;22.356811910388352;26.293625689563825;-0.5094206989696275;-198.8432700514613;250.0;-448.8432700514613
0.1480000000000001;9817354458.0;9817240248.0;30158.0;21.01302595825435;25.784204990594198;-1.6179130802058452;-335.9464880335006;166.66666666666666;-502.61315470016723
0.1520000000000001;9817429876.0;9817336913.0;17545.0;18.85459850680811;24.166291910388352;-2.1005659521340014;-539.60686286156;166.66666666666666;-706.2735295282266
0.1560000000000001;9817499999.0;9817425175.0;4701.0;17.530802750346616;22.06572595825435;-2.9290674514462403;-330.94893911537326;166.66666666666666;-497.6156057820399
0.16000000000000011;9817499999.0;9817501721.0;-1722.0;0.0;19.13665850680811;-1.7091757564614944;-4382.700687586654;166.66666666666666;-4549.367354253321
0.16400000000000012;9817499999.0;9817571430.0;-71431.0;0.0;17.427482750346616;-21.713342750346616;0.0;83.33333333333333;-83.33333333333333
0.16800000000000012;9817557485.0;9817554287.0;-54288.0;14.37129983597412;-4.28586;1.0285799999999998;3592.8249589935303;0.0;3592.8249589935303
0.17200000000000013;9817557947.0;9817541258.0;16227.0;0.11552311815478933;-3.2572799999999997;18.60219983597412;-3563.944179454833;0.0;-3563.944179454833
0.17600000000000013;9817555499.0;9817602637.0;-44690.0;-0.611993967468149;15.344919835974121;-17.91079671781933;-181.87927140573458;0.0;-181.87927140573458
0.18000000000000013;9817552851.0;9817592374.0;-36875.0;-0.6619266337037695;-2.5658768818452105;-0.2586170856229386;-12.483166558905106;0.0;-12.483166558905106
0.18400000000000014;9817499999.0;9817581077.0;-28226.0;-13.21290235295699;-2.824493967468149;0.46900733376437964;-3137.743929813305;0.0;-3137.743929813305
0.18800000000000014;9817499999.0;9817571656.0;-71657.0;0.0;-2.3554866337037694;-15.15683571925322;3303.2255882392474;0.0;3303.2255882392474
0.19200000000000014;9817499999.0;9817501607.0;-1608.0;0.0;-17.51232235295699;17.41584235295699;0.0;0.0;0.0
0.19600000000000015;9817499999.0;9817501222.0;-1223.0;0.0;-0.09648;0.02310000000000001;0.0;0.0;0.0
0.20000000000000015;9817499999.0;9817500929.0;-930.0;0.0;-0.07337999999999999;0.01757999999999999;0.0;0.0;0.0
0.20400000000000015;9817499999.0;9817500706.0;-707.0;0.0;-0.055799999999999995;0.013379999999999996;0.0;0.0;0.0
0.20800000000000016;9817499999.0;9817500537.0;-538.0;0.0;-0.04242;0.010140000000000003;0.0;83.33333333333333;-83.33333333333333
0.21200000000000016;9817499999.0;9817500408.0;-409.0;0.0;-0.032279999999999996;0.007739999999999997;0.0;83.33333333333333;-83.33333333333333
0.21600000000000016;9817499999.0;9817500310.0;-311.0;0.0;-0.02454;0.00588;0.0;166.66666666666666;-166.66666666666666
0.22000000000000017;9817499999.0;9817500236.0;-237.0;0.0;-0.01866;0.004440000000000001;0.0;166.66666666666666;-166.66666666666666
0.22400000000000017;9817499999.0;9817500180.0;-181.0;0.0;-0.014219999999999998;0.0033599999999999984;0.0;250.0;-250.0
0.22800000000000017;9817499999.0;9817500137.0;-138.0;0.0;-0.01086;0.0025800000000000007;0.0;166.66666666666666;-166.66666666666666
0.23200000000000018;9817499999.0;9817500104.0;-105.0;0.0;-0.00828;0.00198;0.0;166.66666666666666;-166.66666666666666
0.23600000000000018;9817499999.0;9817500079.0;-80.0;0.0;-0.006299999999999999;0.0014999999999999996;0.0;83.33333333333333;-83.33333333333333
0.24000000000000019;9817499999.0;9817500060.0;-61.0;0.0;-0.0048;0.00114;0.0;166.66666666666666;-166.66666666666666
0.2440000000000002;9817499999.0;9817500046.0;-47.0;0.0;-0.0036599999999999996;0.00084;0.0;83.33333333333333;-83.33333333333333
0.2480000000000002;9817499999.0;9817500035.0;-36.0;0.0;-0.0028199999999999996;0.00066;0.0;83.33333333333333;-83.33333333333333
0.25200000000000017;9817499999.0;9817500027.0;-28.0;0.0;-0.0021599999999999996;0.00047999999999999974;0.0;0.0;0.0
0.25600000000000017;9817499999.0;9817500021.0;-22.0;0.0;-0.0016799999999999999;0.00035999999999999986;0.0;-83.33333333333333;83.33333333333333
0.2600000000000002;9817499999.0;9817500016.0;-17.0;0.0;-0.00132;0.00030000000000000014;0.0;-83.33333333333333;83.33333333333333
0.2640000000000002;9817499999.0;9817500012.0;-13.0;0.0;-0.0010199999999999999;0.00023999999999999998;0.0;-166.66666666666666;166.66666666666666
0.2680000000000002;9817499999.0;9817500009.0;-10.0;0.0;-0.0007799999999999999;0.00017999999999999993;0.0;-166.66666666666666;166.66666666666666
0.2720000000000002;9817499999.0;9817500007.0;-8.0;0.0;-0.0006;0.00011999999999999999;0.0;-250.0;250.0
0.2760000000000002;9817499999.0;9817500006.0;-7.0;0.0;-0.00047999999999999996;5.9999999999999995e-05;0.0;-166.66666666666666;166.66666666666666
0.2800000000000002;9817499999.0;9817500005.0;-6.0;0.0;-0.00041999999999999996;5.9999999999999995e-05;0.0;-166.66666666666666;166.66666666666666
0.2840000000000002;9817499999.0;9817500004.0;-5.0;0.0;-0.00035999999999999997;5.9999999999999995e-05;0.0;-166.66666666666666;166.66666666666666
0.2880000000000002;9817499999.0;9817500003.0;-4.0;0.0;-0.0003;5.9999999999999995e-05;0.0;-166.66666666666666;166.66666666666666
0.2920000000000002;9817499999.0;9817500003.0;-4.0;0.0;-0.00023999999999999998;0.0;0.0;-83.33333333333333;83.33333333333333
0.2960000000000002;9817499999.0;9817500003.0;-4.0;0.0;-0.00023999999999999998;0.0;0.0;0.0;0.0
0.3000000000000002;9817499999.0;9817500003.0;-4.0;0.0;-0.00023999999999999998;0.0;0.0;0.0;0.0
0.3040000000000002;9817499999.0;9817500003.0;-4.0;0.0;-0.00023999999999999998;0.0;0.0;0.0;0.0
0.3080000000000002;9817499999.0;9817500003.0;-4.0;0.0;-0.00023999999999999998;0.0;0.0;0.0;0.0
0.3120000000000002;9817499999.0;9817500003.0;-4.0;0.0;-0.00023999999999999998;0.0;0.0;0.0;0.0
0.3160000000000002;9817499999.0;9817500003.0;-4.0;0.0;-0.00023999999999999998;0.0;0.0;0.0;0.0
0.32000000000000023;9817499999.0;9817500003.0;-4.0;0.0;-0.00023999999999999998;0.0;0.0;0.0;0.0
0.32400000000000023;9817499999.0;9817500003.0;-4.0;0.0;-0.00023999999999999998;0.0;0.0;0.0;0.0
0.32800000000000024;9817499999.0;9817500003.0;-4.0;0.0;-0.00023999999999999998;0.0;0.0;0.0;0.0
0.33200000000000024;9817499999.0;9817500003.0;-4.0;0.0;-0.00023999999999999998;0.0;0.0;0.0;0.0
0.33600000000000024;9817499999.0;9817500003.0;-4.0;0.0;-0.00023999999999999998;0.0;0.0;0.0;0.0
0.34000000000000025;9817499999.0;9817500003.0;-4.0;0.0;-0.00023999999999999998;0.0;0.0;0.0;0.0
0.34400000000000025;9817499999.0;9817500003.0;-4.0;0.0;-0.00023999999999999998;0.0;0.0;0.0;0.0
0.34800000000000025;9817499999.0;9817500003.0;-4.0;0.0;-0.00023999999999999998;0.0;0.0;0.0;0.0
0.35200000000000026;9817499999.0;9817500003.0;-4.0;0.0;-0.00023999999999999998;0.0;0.0;0.0;0.0
0.35600000000000026;9817499999.0;9817500003.0;-4.0;0.0;-0.00023999999999999998;0.0;0.0;0.0;0.0
0.36000000000000026;9817499999.0;9817500003.0;-4.0;0.0;-0.00023999999999999998;0.0;0.0;0.0;0.0
0.36400000000000027;9817499999.0;9817500003.0;-4.0;0.0;-0.00023999999999999998;0.0;0.0;0.0;0.0
0.36800000000000027;9817499999.0;9817500003.0;-4.0;0.0;-0.00023999999999999998;0.0;0.0;0.0;0.0
0.3720000000000003;9817499999.0;9817500003.0;-4.0;0.0;-0.00023999999999999998;0.0;0.0;0.0;0.0
0.3760000000000003;9817499999.0;9817500003.0;-4.0;0.0;-0.00023999999999999998;0.0;0.0;0.0;0.0
0.3800000000000003;9817499999.0;9817500003.0;-4.0;0.0;-0.00023999999999999998;0.0;0.0;0.0;0.0
0.3840000000000003;9817499999.0;9817500003.0;-4.0;0.0;-0.00023999999999999998;0.0;0.0;0.0;0.0
0.3880000000000003;9817499999.0;9817500003.0;-4.0;0.0;-0.00023999999999999998;0.0;0.0;0.0;0.0
0.3920000000000003;9817499999.0;9817500003.0;-4.0;0.0;-0.00023999999999999998;0.0;0.0;0.0;0.0
0.3960000000000003;9817499999.0;9817500003.0;-4.0;0.0;-0.00023999999999999998;0.0;0.0;0.0;0.0
0.4000000000000003;9817499999.0;9817500003.0;-4.0;0.0;-0.00023999999999999998;0.0;0.0;0.0;0.0
0.4040000000000003;9817499999.0;9817500003.0;-4.0;0.0;-0.00023999999999999998;0.0;0.0;0.0;0.0
0.4080000000000003;9817499999.0;9817500003.0;-4.0;0.0;-0.00023999999999999998;0.0;0.0;0.0;0.0
0.4120000000000003;9817499999.0;9817500003.0;-4.0;0.0;-0.00023999999999999998;0.0;0.0;0.0;0.0
0.4160000000000003;9817499999.0;9817500003.0;-4.0;0.0;-0.00023999999999999998;0.0;0.0;0.0;0.0
0.4200000000000003;9817499999.0;9817500003.0;-4.0;0.0;-0.00023999999999999998;0.0;0.0;0.0;0.0
0.4240000000000003;9817499999.0;9817500003.0;-4.0;0.0;-0.00023999999999999998;0.0;0.0;0.0;0.0
0.4280000000000003;9817499999.0;9817500003.0;-4.0;0.0;-0.00023999999999999998;0.0;0.0;0.0;0.0
0.43200000000000033;9817553466.0;9817500003.0;-4.0;13.366505195520627;-0.00023999999999999998;0.0;3341.626298880157;0.0;3341.626298880157
0.43600000000000033;9817558231.0;9817500003.0;53463.0;1.191253723236386;-0.00023999999999999998;16.57452519552063;-3043.81286807106;0.0;-3043.81286807106
0.44000000000000034;9817568874.0;9817566300.0;-8069.0;2.66081459598255;16.574285195520627;-15.867171472284241;367.39021818654106;0.0;367.39021818654106
0.44400000000000034;9817593264.0;9817569128.0;-254.0;6.097601731459328;0.707113723236386;1.9384608727461643;859.1967838691944;0.0;859.1967838691944
0.44800000000000034;9817636739.0;9817579710.0;13554.0;10.868741413839109;2.6455745959825503;4.265267135476778;1192.7849205949453;0.0;1192.7849205949453
0.45200000000000035;9817697940.0;9817607353.0;29386.0;15.30015033059491;6.910841731459328;5.72105968237978;1107.8522291889503;0.0;1107.8522291889503
0.45600000000000035;9817772302.0;9817657880.0;40060.0;18.590502548809365;12.631901413839108;5.071848916755803;822.5880545536137;83.33333333333333;739.2547212202804
0.46000000000000035;9817854635.0;9817728695.0;43607.0;20.58337751061331;17.70375033059491;3.5031722182144556;498.21874045098633;83.33333333333333;414.885407117653
0.46400000000000036;9817939859.0;9817813522.0;41113.0;21.305968022950537;21.206922548809366;1.8432349618039439;180.6476280843068;166.66666666666666;13.980961417640131
0.46800000000000036;9818023694.0;9817905722.0;34137.0;20.958723081214718;23.05015751061331;0.3040305123372278;-86.81123543395498;166.66666666666666;-253.47790210062163
0.47200000000000036;9818103836.0;9817999138.0;24556.0;20.035523289398512;23.354188022950538;-0.9221049417358209;-230.79994795405145;166.66666666666666;-397.46661462071813
0.47600000000000037;9818176708.0;9818088866.0;14970.0;18.217953748571954;22.432083081214717;-1.4983597918162062;-454.3923852066394;166.66666666666666;-621.0590518733061
0.48000000000000037;9818234730.0;9818172600.0;4108.0;14.505483479129227;20.93372328939851;-2.4692895408265585;-928.1175673606818;166.66666666666666;-1094.7842340273485
0.4840000000000004;9818272977.0;9818246457.0;-11727.0;9.561807370847134;18.464433748571953;-4.662570269442725;-1235.919027070523;166.66666666666666;-1402.5856937371898
0.4880000000000004;9818290394.0;9818301664.0;-28687.0;4.354205112589177;13.801863479129228;-5.961276108282093;-1301.9005645644893;166.66666666666666;-1468.5672312311558
0.4920000000000004;9818284906.0;9818333026.0;-42632.0;-1.37191885752777;7.8405873708471345;-6.044302258257957;-1431.530992529237;83.33333333333333;-1514.8643258625702
0.4960000000000004;9818256835.0;9818340211.0;-55305.0;-7.017914069844835;1.7962851125891777;-6.486503970116948;-1411.4988030792663;83.33333333333333;-1494.8321364125995
0.5000000000000003;9818209858.0;9818321451.0;-64616.0;-11.744206740910027;-4.6902188575277695;-6.204655212317066;-1181.573167766298;0.0;-1181.573167766298
0.5040000000000003;9818146809.0;9818277872.0;-68014.0;-15.762204036408146;-10.894874069844835;-4.93017267106519;-1004.4993238745299;0.0;-1004.4993238745299
0.5080000000000003;9818070561.0;9818214572.0;-67763.0;-19.061970403905793;-15.825046740910025;-4.002937295498121;-824.9415918744116;-83.33333333333333;-741.6082585410783
0.5120000000000003;9817986493.0;9818135261.0;-64700.0;-21.016941547584647;-19.827984036408147;-3.115986367497648;-488.7427859197135;-166.66666666666666;-322.0761192530469
0.5160000000000003;9817900116.0;9818043486.0;-56993.0;-21.594435942697668;-22.943970403905794;-1.4925511436788526;-144.37359877825529;-166.66666666666666;22.29306788841137
0.5200000000000004;9817812163.0;9817945740.0;-45624.0;-21.98802679961755;-24.436521547584647;0.10464560488697927;-98.39771422997057;-166.66666666666666;68.26895243669608
0.5240000000000004;9817722895.0;9817848413.0;-36250.0;-22.317141288724837;-24.331875942697668;0.16884914308011645;-82.2786222768217;-166.66666666666666;84.38804438984496
0.5280000000000004;9817639931.0;9817751761.0;-28866.0;-20.741038223338755;-24.16302679961755;0.11392551089271308;394.0257663465205;-250.0;644.0257663465205
0.5320000000000004;9817573814.0;9817655565.0;-15634.0;-16.529146026616363;-24.049101288724838;2.370023065386082;1052.973049180598;-166.66666666666666;1219.6397158472646
0.5360000000000004;9817499999.0;9817568849.0;4965.0;-18.453667217580445;-21.679078223338756;5.447832196722391;-481.13029774102057;-166.66666666666666;-314.4636310743539
0.5400000000000004;9817499999.0;9817503925.0;-3926.0;0.0;-16.231246026616365;-2.4579811909640803;4613.416804395111;-83.33333333333333;4696.750137728444
0.5440000000000004;9817499999.0;9817429169.0;70830.0;0.0;-18.689227217580445;22.939027217580445;0.0;-83.33333333333333;83.33333333333333
0.5480000000000004;9817499999.0;9817446168.0;53831.0;0.0;4.2498;-1.01994;0.0;0.0;0.0
0.5520000000000004;9817499999.0;9817459087.0;40912.0;0.0;3.2298599999999995;-0.7751399999999999;0.0;0.0;0.0
0.5560000000000004;9817499999.0;9817468905.0;31094.0;0.0;2.4547199999999996;-0.5890799999999998;0.0;0.0;0.0
0.5600000000000004;9817499999.0;9817476367.0;23632.0;0.0;1.8656399999999997;-0.4477199999999999;0.0;0.0;0.0
0.5640000000000004;9817499999.0;9817482038.0;17961.0;0.0;1.4179199999999998;-0.34026;0.0;0.0;0.0
0.5680000000000004;9817499999.0;9817486348.0;13651.0;0.0;1.0776599999999998;-0.25859999999999994;0.0;0.0;0.0
0.5720000000000004;9817499999.0;9817489624.0;10375.0;0.0;0.8190599999999999;-0.19655999999999996;0.0;0.0;0.0
0.5760000000000004;9817499999.0;9817492113.0;7886.0;-8.515934755133369e-10;0.6224999999999999;-0.14933999999999997;-2.1289836887833425e-07;0.0;-2.1289836887833425e-07
0.5800000000000004;9817499999.0;9817494005.0;5994.0;0.0;0.47315999999999997;-0.11352000085159347;2.1289836887833425e-07;0.0;2.1289836887833425e-07
0.5840000000000004;9817568620.0;9817495443.0;4556.0;17.1550617443019;0.3596399991484065;-0.0862799991484065;4288.765436075475;-83.33333333333333;4372.098769408808
0.5880000000000004;9817630180.0;9817496536.0;72084.0;15.39018045786608;0.27336;21.206741744301898;-441.220321608955;-83.33333333333333;-357.88698827562166
0.5920000000000004;9817706095.0;9817582456.0;47724.0;18.978753755105934;21.480101744301898;-3.226481286435817;897.1433243099635;-83.33333333333333;980.4766576432969
0.5960000000000004;9817786957.0;9817655470.0;50625.0;20.21526654423075;18.25362045786608;3.762633297239855;309.1281972812041;0.0;309.1281972812041
0.6000000000000004;9817869514.0;9817743535.0;43422.0;20.639263717364123;22.016253755105936;0.804332789124814;105.99929328334312;0.0;105.99929328334312
0.6040000000000004;9817954527.0;9817834817.0;34697.0;21.253451048703937;22.82058654423075;-0.09950282686662604;153.54683283495342;0.0;153.54683283495342
0.6080000000000004;9818039910.0;9817925701.0;28826.0;21.34565895426685;22.721083717364124;0.2619273313398125;23.05197639072798;0.0;23.05197639072798
