Zeit[sec];Sollposition[°];Istposition[°];Positionsschleppfehler[°];Sollgeschwindigkeit[°/s];Istgeschwindigkeit[°/s];Geschwindigkeitsdifferenz[°/s];Sollbeschleunigung[°/s*s];Istbeschleunigung[°/s*s];Beschleunigungsdifferenz[°/s*s]
0.0;0.0;4.0;-4.0;-0.0;-0.00023999999999999998;0.0;0.0;0.0;0.0
0.004;0.0;4.0;-4.0;-0.0;-0.00023999999999999998;0.0;0.0;0.0;0.0
0.008;0.0;4.0;-4.0;-0.0;-0.00023999999999999998;0.0;0.0;0.0;0.0
0.012;0.0;4.0;-4.0;-0.0;-0.00023999999999999998;0.0;0.0;0.0;0.0
0.016;0.0;4.0;-4.0;-0.0;-0.00023999999999999998;0.0;0.0;0.0;0.0
0.02;0.0;4.0;-4.0;-0.0;-0.00023999999999999998;0.0;0.0;0.0;0.0
0.024;0.0;4.0;-4.0;-0.0;-0.00023999999999999998;0.0;0.0;0.0;0.0
0.028;0.0;4.0;-4.0;-0.0;-0.00023999999999999998;0.0;0.0;0.0;0.0
0.032;0.0;4.0;-4.0;-0.0;-0.00023999999999999998;0.0;0.0;0.0;0.0
0.036000000000000004;0.0;4.0;-4.0;-0.0;-0.00023999999999999998;0.0;0.0;0.0;0.0
0.04000000000000001;0.0;4.0;-4.0;-0.0;-0.00023999999999999998;0.0;0.0;0.0;0.0
0.04400000000000001;0.0;4.0;-4.0;-0.0;-0.00023999999999999998;0.0;0.0;0.0;0.0
0.048000000000000015;0.0;4.0;-4.0;-0.0;-0.00023999999999999998;0.0;0.0;0.0;0.0
0.05200000000000002;-248.0;4.0;-4.0;-0.06203468595872763;-0.00023999999999999998;0.0;-15.508671489681907;0.0;-15.508671489681907
0.05600000000000002;-2721.0;4.0;-252.0;-0.6182173872108228;-0.00023999999999999998;-0.07691468595872762;-139.0456753130238;0.0;-139.0456753130238
0.060000000000000026;-14875.0;-304.0;-2417.0;-3.0386638194203166;-0.07715468595872763;-0.686082701252095;-605.1116080523734;0.0;-605.1116080523734
0.06400000000000003;-55050.0;-3356.0;-11519.0;-10.043820025465719;-0.7632373872108227;-2.966566432209494;-1751.2890515113504;0.0;-1751.2890515113504
0.06800000000000003;-156968.0;-18275.0;-36775.0;-25.47950174040328;-3.7298038194203165;-8.520516206045402;-3858.92042873439;0.0;-3858.92042873439
0.07200000000000004;-370129.0;-67276.0;-89692.0;-53.29002038166484;-12.250320025465719;-18.61070171493756;-6952.62966031539;0.0;-6952.62966031539
0.07600000000000004;-755130.0;-190720.0;-179409.0;-96.25026166117235;-30.861021740403277;-33.19353864126157;-10740.060319876877;-83.33333333333333;-10656.726986543543
0.08000000000000004;-1377627.0;-446938.0;-308192.0;-155.62429470722165;-64.05456038166484;-50.6872212795075;-14843.508261512326;-250.0;-14593.508261512326
0.08400000000000005;-2305266.0;-905905.0;-471722.0;-231.90968385346665;-114.74178166117234;-69.1858330460493;-19071.34728656125;-583.3333333333334;-18488.013953227914
0.08800000000000005;-3606906.0;-1641615.0;-663651.0;-325.41012162635246;-183.92761470722164;-87.80112914624502;-23375.109443221456;-916.6666666666666;-22458.442776554788
0.09200000000000005;-5350460.0;-2728529.0;-878377.0;-435.8883562987866;-271.72874385346665;-106.38399777288578;-27619.55866810854;-1500.0;-26119.55866810854
0.09600000000000006;-7598545.0;-4240979.0;-1109481.0;-562.0213472075228;-378.11274162635243;-124.34447467243422;-31533.247727184047;-2166.6666666666665;-29366.58106051738
0.10000000000000006;-10404291.0;-6250807.0;-1347738.0;-701.4363950181488;-502.45721629878665;-140.42841090873617;-34853.761952656496;-3000.0;-31853.7619526565
0.10400000000000006;-13808060.0;-8822349.0;-1581942.0;-850.9421227812577;-642.8856272075228;-153.46728781062598;-37376.43194077722;-3916.6666666666665;-33459.765274110556
0.10800000000000007;-17834655.0;-12007760.0;-1800300.0;-1006.6488584730946;-796.3529150181488;-162.60720776310893;-38926.68392295923;-5000.0;-33926.68392295923
0.11200000000000007;-22491956.0;-15843600.0;-1991055.0;-1164.3251565616638;-958.9601227812577;-167.15203569183677;-39419.0745221423;-6250.0;-33169.0745221423
0.11600000000000008;-27770609.0;-20348048.0;-2143908.0;-1319.6631293333835;-1126.1121584730945;-166.84747808856923;-38834.49319292993;-7500.0;-31334.493192929927
0.12000000000000008;-33643484.0;-25519886.0;-2250723.0;-1468.218655522775;-1292.9596365616637;-161.74687277171984;-37138.88154734786;-8833.333333333334;-28305.548214014532
0.12400000000000008;-40066287.0;-31338712.0;-2304772.0;-1605.7007043863848;-1454.7065093333836;-151.79846618939132;-34370.51221590247;-10083.333333333334;-24287.178882569133
0.12800000000000009;-46980858.0;-37764731.0;-2301556.0;-1728.6427729598236;-1606.5049755227749;-137.28908886361;-30735.517143359688;-11416.666666666666;-19318.85047669302
0.1320000000000001;-54319958.0;-44739907.0;-2240951.0;-1834.7747763555321;-1743.794064386385;-119.30576857343863;-26533.000848927146;-12500.0;-14033.000848927146
0.1360000000000001;-62011854.0;-52192306.0;-2127652.0;-1922.973878503133;-1863.0998329598235;-99.33406339570865;-22049.7755369002;-13583.333333333334;-8466.442203566865
0.1400000000000001;-69984279.0;-60042041.0;-1969813.0;-1993.106224460821;-1962.4338963555322;-78.72876214760072;-17533.086489422032;-14500.0;-3033.0864894220326
0.1440000000000001;-78167571.0;-68206691.0;-1777588.0;-2045.8228795868554;-2041.162658503133;-58.59884595768813;-13179.163781508578;-15250.0;2070.836218491422
0.1480000000000001;-86497030.0;-76605737.0;-1561834.0;-2082.364826036954;-2099.761504460821;-39.7714151260343;-9135.486612524688;-15916.666666666666;6781.180054141979
0.1520000000000001;-94916005.0;-85163868.0;-1333162.0;-2104.743426474417;-2139.5329195868553;-22.821626450098847;-5594.650109365716;-16333.333333333334;10738.683223967619
0.1560000000000001;-103380195.0;-93813286.0;-1102719.0;-2116.0475607052895;-2162.354546036954;-8.552020437462943;-2826.0335577181195;-16666.666666666668;13840.633108948548
0.16000000000000011;-111860330.0;-102496912.0;-883283.0;-2120.033721279275;-2170.906566474417;1.8620257691277402;-996.5401434964178;-16833.333333333332;15836.793189836913
0.16400000000000012;-120340914.0;-111173090.0;-687240.0;-2120.145728109761;-2169.0445407052894;7.7764194260143995;-28.001707621456262;-16916.666666666668;16888.66495904521
0.16800000000000012;-128816279.0;-119818162.0;-522752.0;-2118.841138138446;-2161.268121279275;9.757273169514065;326.1474928287953;-17000.0;17326.147492828793
0.17200000000000013;-137286243.0;-128424205.0;-392074.0;-2117.4909620760536;-2151.510848109761;9.145269971314974;337.54401559804137;-16916.666666666668;17254.21068226471
0.17600000000000013;-145752713.0;-136993667.0;-292576.0;-2116.6174324011836;-2142.365578138446;7.320056062392268;218.38241871751052;-16833.333333333332;17051.71575205084
0.18000000000000013;-154217680.0;-145533849.0;-218864.0;-2116.241530596278;-2135.0455220760537;5.296249674870069;93.9754512263562;-16666.666666666668;16760.642117893025
0.18400000000000014;-162682426.0;-154052846.0;-164834.0;-2116.1865279270946;-2129.7492724011836;3.617701804905664;13.750667295880703;-16666.666666666668;16680.41733396255
0.18800000000000014;-171147490.0;-162557372.0;-125054.0;-2116.2657985863025;-2126.131570596278;2.4418026691832893;-19.817664801962565;-16583.333333333332;16563.51566853137
0.19200000000000014;-179612926.0;-171052131.0;-95359.0;-2116.359041217577;-2123.6897679270946;1.7024293407921505;-23.310657818683467;-16666.666666666668;16643.356008847986
0.19600000000000015;-188078594.0;-179540080.0;-72846.0;-2116.4168833013177;-2121.9873385863025;1.2575373687254796;-14.460520935131171;-16583.333333333332;16568.8728123982
0.20000000000000015;-196544338.0;-188022999.0;-55595.0;-2116.435750186572;-2120.729801217577;0.9772179162591783;-4.716721313570815;-16583.333333333332;16578.61661201976
0.20400000000000015;-205010061.0;-196502009.0;-42329.0;-2116.430639705688;-2119.752583301318;0.7770931147456395;1.277620221003417;-16416.666666666668;16417.944286887672
0.20800000000000016;-213475731.0;-204977910.0;-32151.0;-2116.417489786392;-2118.975490186572;0.6157904808842432;3.2874798240527525;-16250.0;16253.287479824052
0.21200000000000016;-221941356.0;-213451348.0;-24383.0;-2116.406071729991;-2118.359699705688;0.4792299192963583;2.8545141002496166;-16000.0;16002.85451410025
0.21600000000000016;-230406955.0;-221922869.0;-18487.0;-2116.3997269396154;-2117.8804697863916;0.3651780564009641;1.5861975938378237;-15583.333333333334;15584.91953092717
0.22000000000000017;-238872547.0;-230392930.0;-14025.0;-2116.397856793605;-2117.5152917299906;0.27406479037517784;0.4675365025832434;-15083.333333333334;15083.800869835917
0.22400000000000017;-247338141.0;-238861894.0;-10653.0;-2116.3984945328752;-2117.2412269396154;0.20419014601020535;-0.15943481753311062;-14333.333333333334;14333.1738985158
0.22800000000000017;-255803741.0;-247330042.0;-8099.0;-2116.399883292981;-2117.0370367936052;0.15260226072996375;-0.3471900264457872;-13583.333333333334;13582.986143306887
0.23200000000000018;-264269346.0;-255797579.0;-6162.0;-2116.401031097988;-2116.8844345328753;0.1148312398941016;-0.2869512517236217;-12583.333333333334;12583.046382081611
0.23600000000000018;-272734953.0;-264264657.0;-4689.0;-2116.4016365809885;-2116.769603292981;0.08723219499324841;-0.15137075013171852;-11500.0;11499.848629249867
0.24000000000000019;-281200560.0;-272731386.0;-3567.0;-2116.401790896398;-2116.682371097988;0.06671451699958197;-0.03857885235447611;-10250.0;10249.961421147646
0.2440000000000002;-289666167.0;-281197848.0;-2712.0;-2116.401706047059;-2116.6156565809883;0.05114568459066504;0.021212334672782163;-9000.0;9000.021212334672
0.2480000000000002;-298131774.0;-289664106.0;-2061.0;-2116.401559534099;-2116.5645108963977;0.03914484933829954;0.03662824008188181;-7750.0;7750.036628240082
0.25200000000000017;-306597380.0;-298130207.0;-1567.0;-2116.4014459251684;-2116.5253660470594;0.029786512960527034;0.02840223260136554;-6500.0;6500.028402232601
0.25600000000000017;-315062986.0;-306596189.0;-1191.0;-2116.4013899125816;-2116.495579534099;0.022673608930290357;0.014003146702634695;-5250.0;5250.014003146703
0.2600000000000002;-323528592.0;-315062080.0;-906.0;-2116.401378770558;-2116.4729059251686;0.017156012586838187;0.002785505898827978;-4000.0;4000.002785505899
0.2640000000000002;-331994198.0;-323527902.0;-690.0;-2116.401389873429;-2116.4557499125817;0.012971142023616267;-0.0027757176894738222;-2916.6666666666665;2916.663890948977
0.2680000000000002;-340459804.0;-331993673.0;-525.0;-2116.4014055069674;-2116.442778770558;0.009888897129258112;-0.0039083846559151425;-2000.0;1999.996091615344
0.2720000000000002;-348925410.0;-340459404.0;-400.0;-2116.40141684081;-2116.432889873429;0.0074843664615400485;-0.0028334605985946837;-1250.0;1249.9971665394014
0.2760000000000002;-357391016.0;-348925105.0;-305.0;-2116.4014220354825;-2116.4254055069673;0.005688666157311673;-0.0012986681667825906;-666.6666666666666;666.6653679984998
0.2800000000000002;-365856622.0;-357390783.0;-233.0;-2116.4014227560683;-2116.41971684081;0.0043148053273398546;-0.00018014645775110694;-166.66666666666666;166.6664865202089
0.2840000000000002;-374322228.0;-365856444.0;-178.0;-2116.40142141308;-2116.4154020354827;0.003299279414477496;0.0003357471314302529;83.33333333333333;-83.3329975862019
0.2880000000000002;-382787834.0;-374322092.0;-136.0;-2116.401419772804;-2116.412102756068;0.0025213429885297955;0.00041006899209605763;333.3333333333333;-333.3329232643412
0.2920000000000002;-391253441.0;-382787730.0;-104.0;-2116.4014186547597;-2116.4095814130796;0.0019216402756683237;0.0002795110276565538;416.6666666666667;-416.66638715563903
0.2960000000000002;-399719047.0;-391253360.0;-81.0;-2116.401418181382;-2116.407659772804;0.00138111804426444;0.00011834447377623292;416.6666666666667;-416.6665483221929
0.3000000000000002;-408184653.0;-399718985.0;-62.0;-2116.4014181496555;-2116.4062786547597;0.0011404733777453657;7.931589607323986e-06;333.3333333333333;-333.3333254017437
0.3040000000000002;-416650259.0;-408184605.0;-48.0;-2116.401418306155;-2116.405138181382;0.0008400317265113699;-3.912487045454327e-05;250.0;-250.00003912487045
0.3080000000000002;-425115865.0;-416650222.0;-37.0;-2116.4014184765056;-2116.4042981496555;0.0006598435006708314;-4.258765784470597e-05;166.66666666666666;-166.6667092543245
0.3120000000000002;-433581471.0;-425115836.0;-29.0;-2116.4014185858055;-2116.403638306155;0.0004798296490662324;-2.7324972506903578e-05;166.66666666666666;-166.66669399163916
0.3160000000000002;-442047077.0;-433581448.0;-23.0;-2116.4014186280433;-2116.4031584765057;0.00035989070011055446;-1.055946086125914e-05;83.33333333333333;-83.33334389279419
0.32000000000000023;-450512683.0;-442047059.0;-18.0;-2116.4014186271843;-2116.4027985858056;0.0002999577623086225;2.1475443645613268e-07;83.33333333333333;-83.33333311857889
0.32400000000000023;-458978289.0;-450512668.0;-15.0;-2116.4014186094046;-2116.4024986280433;0.00018000085901803686;4.4449279812397435e-06;83.33333333333333;-83.33332888840535
0.32800000000000024;-467443895.0;-458978277.0;-12.0;-2116.401418591848;-2116.4023186271843;0.000180017779712216;4.38910774391843e-06;83.33333333333333;-83.33332894422558
0.33200000000000024;-475909501.0;-467443885.0;-10.0;-2116.401418581273;-2116.4021386094046;0.00012001755658275215;2.6437874112161808e-06;83.33333333333333;-83.33333068954592
0.33600000000000024;-484375107.0;-475909493.0;-8.0;-2116.401418577536;-2116.402018591848;0.00012001057484667399;9.342784323962405e-07;0.0;9.342784323962405e-07
0.34000000000000025;-492840713.0;-484375100.0;-7.0;-2116.401418578108;-2116.401898581273;6.00037374169915e-05;-1.4301804185379297e-07;0.0;-1.4301804185379297e-07
0.34400000000000025;-501306320.0;-492840707.0;-6.0;-2116.4014185800165;-2116.4018385775357;5.999942777634715e-05;-4.771436579176225e-07;0.0;-4.771436579176225e-07
0.34800000000000025;-509771926.0;-501306314.0;-6.0;-2116.4014185818137;-2116.401778578108;-1.90857463167049e-09;-4.4929038267582655e-07;0.0;-4.4929038267582655e-07
0.35200000000000026;-518237532.0;-509771921.0;-5.0;-2116.4014185828155;-2116.4017785800165;5.999820268698386e-05;-2.504521035007201e-07;0.0;-2.504521035007201e-07
0.35600000000000026;-526703138.0;-518237527.0;-5.0;-2116.4014185831493;-2116.401718581814;-1.0018084140028805e-09;-8.344613888766617e-08;0.0;-8.344613888766617e-08
0.36000000000000026;-535168744.0;-526703133.0;-5.0;-2116.40141858307;-2116.4017185828156;-3.3378455555066466e-10;1.978150976356119e-08;0.0;1.978150976356119e-08
0.36400000000000027;-543634350.0;-535168739.0;-5.0;-2116.4014185828632;-2116.4017185831494;7.912603905424476e-11;5.1727511163335294e-08;0.0;5.1727511163335294e-08
0.36800000000000027;-552099956.0;-543634345.0;-5.0;-2116.4014185826404;-2116.4017185830703;2.0691004465334117e-10;5.5706550483591855e-08;0.0;5.5706550483591855e-08
0.3720000000000003;-560565562.0;-552099951.0;-5.0;-2116.4014185825295;-2116.4017185828634;2.2282620193436742e-10;2.773958840407431e-08;0.0;2.773958840407431e-08
0.3760000000000003;-569031168.0;-560565557.0;-5.0;-2116.4014185826086;-2116.4017185826406;1.1095835361629725e-10;-1.978150976356119e-08;0.0;-1.978150976356119e-08
0.3800000000000003;-577496774.0;-569031163.0;-5.0;-2116.4014185826086;-2116.4017185825296;-7.912603905424476e-11;0.0;0.0;0.0
0.3840000000000003;-585962380.0;-577496769.0;-5.0;-2116.401418582513;-2116.4017185826087;0.0;2.3874235921539366e-08;0.0;2.3874235921539366e-08
0.3880000000000003;-594427986.0;-585962375.0;-5.0;-2116.4014185826086;-2116.4017185826087;9.549694368615746e-11;-2.3874235921539366e-08;0.0;-2.3874235921539366e-08
0.3920000000000003;-602893592.0;-594427981.0;-5.0;-2116.4014185825768;-2116.4017185825132;-9.549694368615746e-11;7.958078640513122e-09;0.0;7.958078640513122e-09
0.3960000000000003;-611359199.0;-602893587.0;-5.0;-2116.4014185826404;-2116.4017185826087;3.183231456205249e-11;-1.5916157281026244e-08;0.0;-1.5916157281026244e-08
0.4000000000000003;-619824805.0;-611359193.0;-6.0;-2116.4014185826722;-2116.401718582577;-6.0000063513143687e-05;-7.958078640513122e-09;0.0;-7.958078640513122e-09
0.4040000000000003;-628290411.0;-619824800.0;-5.0;-2116.4014185826086;-2116.4017785826404;5.99999680162e-05;1.5916157281026244e-08;0.0;1.5916157281026244e-08
0.4080000000000003;-636756017.0;-628290406.0;-5.0;-2116.401418582545;-2116.4017185826724;6.366462912410498e-11;1.5916157281026244e-08;0.0;1.5916157281026244e-08
0.4120000000000003;-645221623.0;-636756012.0;-5.0;-2116.4014185826086;-2116.4017185826087;6.366462912410498e-11;-1.5916157281026244e-08;0.0;-1.5916157281026244e-08
0.4160000000000003;-653687229.0;-645221618.0;-5.0;-2116.4014185826722;-2116.401718582545;-6.366462912410498e-11;-1.5916157281026244e-08;0.0;-1.5916157281026244e-08
0.4200000000000003;-662152835.0;-653687224.0;-5.0;-2116.401418582545;-2116.4017185826087;-6.366462912410498e-11;3.183231456205249e-08;0.0;3.183231456205249e-08
0.4240000000000003;-670618343.0;-662152830.0;-5.0;-2116.3768912232604;-2116.4017185826724;1.2732925824820995e-10;6.131839821136964;0.0;6.131839821136964
0.4280000000000003;-679083118.0;-670618436.0;93.0;-2116.1937779817454;-2116.401718582545;0.030407359284708946;45.778310378750575;0.0;45.778310378750575
0.43200000000000033;-687545238.0;-679083921.0;803.0;-2115.5298439275616;-2116.3713112232604;0.22571324151476801;165.98351354593888;0.0;165.98351354593888
0.43600000000000033;-696000185.0;-687548503.0;3265.0;-2113.7365782423917;-2116.1455979817456;0.8116540541841459;448.31642129247484;0.0;448.31642129247484
0.44000000000000034;-704437517.0;-696009838.0;9653.0;-2109.332907986399;-2115.3339439275614;2.1765456851699128;1100.9175639982232;0.0;1100.9175639982232
0.44400000000000034;-712835559.0;-704462467.0;24950.0;-2099.51049709194;-2113.1573982423915;5.321490255992558;2455.6027236146747;0.0;2455.6027236146747
0.44800000000000034;-721157648.0;-712893810.0;58251.0;-2080.5221135977213;-2107.835907986399;11.82047089445905;4747.095873554713;83.33333333333333;4663.76254022138
0.45200000000000035;-729352438.0;-721277871.0;120223.0;-2048.6973576035703;-2096.01543709194;22.7067034942188;7956.188998537755;83.33333333333333;7872.855665204422
0.45600000000000035;-737357075.0;-729571105.0;218667.0;-2001.159112460561;-2073.308733597721;37.731395994150944;11884.561285752341;166.66666666666666;11717.894619085673
0.46000000000000035;-745101303.0;-737713414.0;356339.0;-1936.0568923246376;-2035.5773376035702;55.79856514300923;16275.555033980821;333.3333333333333;15942.22170064749
0.46400000000000036;-752511562.0;-745632529.0;531226.0;-1852.5648172116278;-1979.778772460561;75.59544013592335;20873.01877825246;666.6666666666666;20206.35211158579
0.46800000000000036;-759514377.0;-753249262.0;737700.0;-1750.7034294556202;-1904.1833323246376;95.88051511300978;25465.346939001905;1166.6666666666667;24298.680272335238
0.47200000000000036;-766039090.0;-760482473.0;968096.0;-1631.1782175796068;-1808.3028172116278;115.68514775600761;29881.302969003344;1750.0;28131.302969003344
0.47600000000000037;-772021734.0;-767252943.0;1213853.0;-1495.6609878863333;-1692.6176694556202;134.27063187601334;33879.30742331838;2500.0;31379.30742331838
0.48000000000000037;-777410387.0;-773486331.0;1464597.0;-1347.1632874637464;-1558.3470375796069;150.5618696932736;37124.42510564671;3333.3333333333335;33791.091772313375
0.4840000000000004;-782169424.0;-779117471.0;1707084.0;-1189.7590285950569;-1407.7851678863333;163.04692042258694;39351.06471717239;4333.333333333333;35017.73138383906
0.4880000000000004;-786281908.0;-784096423.0;1926999.0;-1028.1210418769008;-1244.7382474637463;170.59915886868953;40409.49667953902;5583.333333333333;34826.163346205685
0.4920000000000004;-789751261.0;-788392979.0;2111071.0;-867.338177636603;-1074.1390885950568;172.68230671815604;40195.71606007446;6833.333333333333;33362.382726741125
0.4960000000000004;-792601098.0;-791998806.0;2247545.0;-712.4592819569025;-901.4567818769008;168.97130424029785;38719.72391992511;8166.666666666667;30553.05725325845
0.5000000000000003;-794872558.0;-794928747.0;2327649.0;-567.864936871472;-732.4854776366029;159.68513567970047;36148.58627135763;9416.666666666666;26731.919604690964
0.5040000000000003;-796620697.0;-797219948.0;2347390.0;-437.0347023417089;-572.8003419569025;145.77880508543046;32707.558632440767;10833.333333333334;21874.22529910743
0.5080000000000003;-797910620.0;-798928034.0;2307337.0;-322.4806698540168;-427.021536871472;128.42705452976304;28638.508121923023;12000.0;16638.508121923023
