Zeit[sec];Sollposition[°];Istposition[°];Positionsschleppfehler[°];Sollgeschwindigkeit[°/s];Istgeschwindigkeit[°/s];Geschwindigkeitsdifferenz[°/s];Sollbeschleunigung[°/s*s];Istbeschleunigung[°/s*s];Beschleunigungsdifferenz[°/s*s]
0.0;0.0;5.0;-5.0;-0.0;-0.00021499999999999997;0.0;0.0;0.0;0.0
0.004;0.0;5.0;-5.0;-0.0;-0.00021499999999999997;0.0;0.0;0.0;0.0
0.008;0.0;5.0;-5.0;-0.0;-0.00021499999999999997;0.0;0.0;0.0;0.0
0.012;0.0;5.0;-5.0;-0.0;-0.00021499999999999997;0.0;0.0;0.0;0.0
0.016;0.0;5.0;-5.0;-0.0;-0.00021499999999999997;0.0;0.0;0.0;0.0
0.02;0.0;5.0;-5.0;-0.0;-0.00021499999999999997;0.0;0.0;0.0;0.0
0.024;0.0;5.0;-5.0;-0.0;-0.00021499999999999997;0.0;0.0;0.0;0.0
0.028;0.0;5.0;-5.0;-0.0;-0.00021499999999999997;0.0;0.0;0.0;0.0
0.032;0.0;5.0;-5.0;-0.0;-0.00021499999999999997;0.0;0.0;0.0;0.0
0.036000000000000004;0.0;5.0;-5.0;-0.0;-0.00021499999999999997;0.0;0.0;0.0;0.0
0.04000000000000001;0.0;5.0;-5.0;-0.0;-0.00021499999999999997;0.0;0.0;0.0;0.0
0.04400000000000001;0.0;5.0;-5.0;-0.0;-0.00021499999999999997;0.0;0.0;0.0;0.0
0.048000000000000015;-338.0;5.0;-5.0;-0.08463289187901663;-0.00021499999999999997;0.0;-21.158222969754156;0.0;-21.158222969754156
0.05200000000000002;-3712.0;5.0;-343.0;-0.8434237149899045;-0.00021499999999999997;-0.09916689187901662;-189.69770577772198;0.0;-189.69770577772198
0.05600000000000002;-20294.0;-392.0;-3320.0;-4.145598587486677;-0.09938189187901662;-0.886801823110888;-825.5437181241931;0.0;-825.5437181241931
0.060000000000000026;-75105.0;-4336.0;-15958.0;-13.70261686877708;-0.9861837149899045;-3.8456088724967716;-2389.2545703226006;0.0;-2389.2545703226006
0.06400000000000003;-214150.0;-23663.0;-51442.0;-34.76126110092356;-4.831792587486676;-11.082830281290404;-5264.6610580366205;0.0;-5264.6610580366205
0.06800000000000003;-504960.0;-87321.0;-126829.0;-72.7026898497673;-15.91462286877708;-24.30028523214648;-9485.357187210933;0.0;-9485.357187210933
0.07200000000000004;-1030211.0;-248180.0;-256780.0;-131.3126336110915;-40.21490810092356;-43.529321748843735;-14652.485940331055;-83.33333333333333;-14569.15260699772
0.07600000000000004;-1879474.0;-583156.0;-447055.0;-212.31564090492216;-83.7442298497673;-66.79176876132422;-20250.751823457664;-333.3333333333333;-19917.418490124328
0.08000000000000004;-3145036.0;-1185299.0;-694175.0;-316.39053048890355;-150.53599861109151;-91.62916729383065;-26018.722395995348;-750.0;-25268.722395995348
0.08400000000000005;-4920842.0;-2153959.0;-991077.0;-443.95162503366566;-242.16516590492216;-116.84167558398138;-31890.27363619053;-1250.0;-30640.27363619053
0.08800000000000005;-7299543.0;-3589986.0;-1330856.0;-594.6752459478981;-359.00684148890355;-142.17159154476212;-37680.90522855812;-2000.0;-35680.90522855812
0.09200000000000005;-10366569.0;-5594699.0;-1704844.0;-766.7563908257591;-501.17843303366567;-166.80510491423252;-43020.28621946525;-2833.3333333333335;-40186.95288613191
0.09600000000000006;-14194657.0;-8266633.0;-2099936.0;-957.0220381727512;-667.9835379478982;-189.0701008778609;-47566.41183674802;-4000.0;-43566.41183674802
0.10000000000000006;-18840530.0;-11694847.0;-2499810.0;-1161.4681184680808;-857.0536388257591;-207.46022934699215;-51111.5200738324;-5250.0;-45861.5200738324
0.10400000000000006;-24343046.0;-15952902.0;-2887628.0;-1375.6290026015674;-1064.5138681727512;-221.1222542953294;-53540.221033371665;-6750.0;-46790.221033371665
0.10800000000000007;-30723753.0;-21095446.0;-3247600.0;-1595.1765167949197;-1285.6361224680807;-229.63968013348676;-54886.87854833808;-8333.333333333334;-46553.54521500474
0.11200000000000007;-37990731.0;-27156549.0;-3567204.0;-1816.7444656011312;-1515.2758026015674;-233.2904861933523;-55391.98720155287;-10083.333333333334;-45308.65386821953
0.11600000000000008;-46144106.0;-34150814.0;-3839917.0;-2038.3436004559678;-1748.5662887949197;-233.2946078062114;-55399.783713709156;-11833.333333333334;-43566.45038037582
0.12000000000000008;-55180876.0;-42078257.0;-4065849.0;-2259.1923360106434;-1981.8608966011311;-231.3142108548368;-55212.1838886689;-13666.666666666666;-41545.517222002236
0.12400000000000008;-65097917.0;-50930957.0;-4249919.0;-2479.260331360416;-2213.175107455968;-228.76374555467555;-55016.99883744311;-15416.666666666666;-39600.33217077645
0.12800000000000009;-75893211.0;-60698712.0;-4399205.0;-2698.823265608621;-2441.9388530106435;-226.48729334977224;-54890.73356205131;-17333.333333333332;-37557.400228717976
0.1320000000000001;-87565393.0;-71372416.0;-4520795.0;-2918.045484861986;-2668.4261463604157;-224.7913042482055;-54805.554813341245;-19083.333333333332;-35722.22148000792
0.1360000000000001;-100111040.0;-82945285.0;-4620108.0;-3136.4115765585284;-2893.217450608621;-223.49267825336483;-54591.52292413558;-20916.666666666668;-33674.856257468906
0.1400000000000001;-113520254.0;-95412125.0;-4698915.0;-3352.303125863693;-3116.710128861986;-221.75479269654215;-53972.88732629113;-22583.333333333332;-31389.553992957797
0.1440000000000001;-127772682.0;-108765984.0;-4754270.0;-3563.106986903217;-3338.464921558528;-218.27181430516475;-52700.96525988106;-24333.333333333332;-28367.63192654773
0.1480000000000001;-142834096.0;-122992930.0;-4779752.0;-3765.353264094945;-3556.736735863693;-211.89958703952425;-50561.56929793201;-26000.0;-24561.56929793201
0.1520000000000001;-158652868.0;-138067475.0;-4766621.0;-3954.6929597380936;-3768.636322903217;-201.68164419172808;-47334.923910787096;-27750.0;-19584.923910787096
0.1560000000000001;-175158716.0;-153948746.0;-4704122.0;-4126.461560381801;-3970.3179670949453;-186.6522386431484;-42942.150160926874;-29416.666666666668;-13525.483494260203
0.16000000000000011;-192265727.0;-170576626.0;-4582090.0;-4276.752561555682;-4156.970205738094;-166.52122464370768;-37572.75029347034;-31000.0;-6572.750293470335
0.16400000000000012;-209878064.0;-187870591.0;-4395136.0;-4403.084090213994;-4323.491430381801;-142.2519791738814;-31582.882164577997;-32416.666666666668;833.7845020886725
0.16800000000000012;-227895979.0;-205733564.0;-4144500.0;-4504.478707698883;-4465.743409555683;-115.55418065831145;-25348.654371222212;-33750.0;8401.34562877779
0.17200000000000013;-246221826.0;-224058754.0;-3837225.0;-4581.461475111452;-4581.297590213994;-88.18179248488923;-19245.691853142263;-34833.333333333336;15587.641480191074
0.17600000000000013;-264765733.0;-242736671.0;-3485155.0;-4635.97636677272;-4669.4793826988835;-61.843757412569175;-13628.722915316985;-35750.0;22121.277084683017
0.18000000000000013;-283449594.0;-261661963.0;-3103770.0;-4670.965120573237;-4731.323140111453;-38.115336661267975;-8747.188450129215;-36416.666666666664;27669.47821653745
0.18400000000000014;-302210016.0;-280739716.0;-2709878.0;-4690.105216184421;-4769.438476772721;-18.051397800516497;-4785.023902795956;-36916.666666666664;32131.64276387071
0.18800000000000014;-321001332.0;-299889675.0;-2320341.0;-4697.828775541352;-4787.489874573237;-2.39000461118394;-1930.8898392328047;-37166.666666666664;35235.77682743386
0.19200000000000014;-339796551.0;-319049194.0;-1952138.0;-4698.804529528186;-4789.879879184421;8.109169643068526;-243.9384967085516;-37333.333333333336;37089.394836624786
0.19600000000000015;-358584199.0;-338176276.0;-1620275.0;-4696.911959292302;-4781.7707095413525;13.294355013165841;473.1425589711762;-37333.333333333336;37806.475892304516
0.20000000000000015;-377362620.0;-357250181.0;-1334018.0;-4694.605025303233;-4768.476354528187;14.201621235884886;576.7334972672415;-37250.0;37826.73349726724
0.20400000000000015;-396134515.0;-376267279.0;-1095341.0;-4692.973509294608;-4754.274733292302;12.570044989069174;407.8790021560508;-36916.666666666664;37324.54566882271
0.20800000000000016;-414903288.0;-395234097.0;-900418.0;-4692.192873990447;-4741.704688303233;10.013205008624027;195.1588260403696;-36416.666666666664;36611.82549270704
0.21200000000000016;-433671359.0;-414160862.0;-742426.0;-4692.017652794945;-4731.691483294609;7.5742913041613065;43.80529887544071;-35750.0;35793.80529887544
0.21600000000000016;-452439875.0;-433057330.0;-614029.0;-4692.128633160114;-4724.117191990447;5.696292195501883;-27.745091292217694;-35000.0;34972.25490870778
0.22000000000000017;-471209064.0;-451931013.0;-508862.0;-4692.297169928291;-4718.420899794945;4.411200634831403;-42.134192044159136;-34083.333333333336;34041.19914128918
0.22400000000000017;-489978729.0;-470787051.0;-422013.0;-4692.415928262656;-4714.009699160114;3.565970231823485;-29.689583591334667;-32916.666666666664;32886.977083075326
0.22800000000000017;-508748590.0;-489628825.0;-349904.0;-4692.465062679218;-4710.4437289282905;2.9819286656347685;-12.283604140520765;-31500.0;31487.71639585948
0.23200000000000018;-527518454.0;-508458672.0;-289918.0;-4692.4656738987605;-4707.461800262656;2.5302635834377725;-0.15280488560165395;-30000.0;29999.8471951144
0.23600000000000018;-546288239.0;-527278398.0;-240056.0;-4692.446013617899;-4704.931536679218;2.143454780457432;4.9150702154747705;-28416.666666666668;28421.581736882144
0.24000000000000019;-565057942.0;-546089550.0;-198689.0;-4692.4256698964555;-4702.7880818987605;1.79844128086188;5.08593036079219;-26750.0;26755.085930360794
0.2440000000000002;-583827595.0;-564893508.0;-164434.0;-4692.412894548898;-4700.989640617899;1.4933087214430998;3.1938368892951985;-24916.666666666668;24919.860503555963
0.2480000000000002;-602597228.0;-583691493.0;-136102.0;-4692.408092191954;-4699.496331896456;1.2310513475576954;1.200589236077576;-23083.333333333332;23084.53392256941
0.25200000000000017;-621366862.0;-602484554.0;-112674.0;-4692.408336515266;-4698.265280548898;1.0122063569442616;-0.06108082789069158;-21250.0;21249.93891917211
0.25600000000000017;-640136505.0;-621273566.0;-93296.0;-4692.410498527409;-4697.253074191954;0.8330096766876522;-0.5405030358360818;-19416.666666666668;19416.126163630834
0.2600000000000002;-658906156.0;-640059246.0;-77259.0;-4692.412583935874;-4696.420064515266;0.6874289878569471;-0.5213521162659163;-17583.333333333332;17582.811981217066
0.2640000000000002;-677675812.0;-658842176.0;-63980.0;-4692.413827458301;-4695.732635527409;0.5689115915347429;-0.31088060677575413;-15833.333333333334;15833.022452726558
0.2680000000000002;-696445470.0;-677622830.0;-52982.0;-4692.414252030907;-4695.163723935874;0.4716704775728431;-0.10614315146995068;-14083.333333333334;14083.227190181864
0.2720000000000002;-715215128.0;-696401598.0;-43872.0;-4692.414185825083;-4694.692053458301;0.3913054273943999;0.016551455928492942;-12333.333333333334;12333.349884789262
0.2760000000000002;-733984785.0;-715178800.0;-36328.0;-4692.413950694877;-4694.300748030907;0.32445820582415763;0.05878255160496337;-10583.333333333334;10583.392115884939
0.2800000000000002;-752754440.0;-733954705.0;-30080.0;-4692.413740483698;-4693.976289825083;0.268899130205682;0.05255279461380269;-8916.666666666666;8916.71921946128
0.2840000000000002;-771524096.0;-752729534.0;-24906.0;-4692.413622480204;-4693.707390694877;0.2226922111785825;0.02950087355202413;-7250.0;7250.029500873552
0.2880000000000002;-790293751.0;-771503472.0;-20624.0;-4692.413587372111;-4693.484698483699;0.1842440034943138;0.008777023367656511;-5666.666666666667;5666.675443690035
0.2920000000000002;-809063406.0;-790276673.0;-17078.0;-4692.413599024583;-4693.300454480204;0.15251310809344432;-0.002913118123615277;-4250.0;4249.997086881876
0.2960000000000002;-827833062.0;-809049264.0;-14142.0;-4692.413624760168;-4693.147941372111;0.12623634752799262;-0.006433896260205074;-3000.0;2999.99356610374
0.3000000000000002;-846602717.0;-827821350.0;-11712.0;-4692.413646055127;-4693.021705024583;0.10446426441467338;-0.005323739742379985;-1833.3333333333333;1833.3280095935909
0.3040000000000002;-865372373.0;-846593018.0;-9699.0;-4692.413657263752;-4692.917240760168;0.08653770504133718;-0.0028021561320201727;-916.6666666666666;916.6638645105346
0.3080000000000002;-884142028.0;-865364340.0;-8033.0;-4692.413660076737;-4692.830703055127;0.07162679137491068;-0.0007032463145151269;-250.0;249.99929675368548
0.3120000000000002;-902911684.0;-884135376.0;-6652.0;-4692.413658446983;-4692.759076263752;0.05938018701453984;0.00040743839235801715;166.66666666666666;-166.6662592282743
0.3160000000000002;-921681339.0;-902906174.0;-5510.0;-4692.413655684213;-4692.699696076737;0.0491076297539621;0.0006906925591465551;500.0;-499.99930930744085
0.32000000000000023;-940450995.0;-921676776.0;-4563.0;-4692.413653549391;-4692.650588446983;0.040723762770539906;0.0005337055881682318;666.6666666666666;-666.6661329610785
0.32400000000000023;-959220650.0;-940447215.0;-3780.0;-4692.413652498397;-4692.609864684213;0.03367113482181594;0.0002627484718686901;750.0;-749.9997372515281
0.32800000000000024;-977990306.0;-959217519.0;-3131.0;-4692.41365228958;-4692.576193549391;0.027908050994483347;5.220431376073975e-05;750.0;-749.9999477956862
0.33200000000000024;-996759961.0;-977987712.0;-2594.0;-4692.413652497837;-4692.548285498397;0.02309120881727722;-5.206425157666672e-05;666.6666666666666;-666.6667187309182
0.33600000000000024;-1015529617.0;-996757812.0;-2149.0;-4692.413652790638;-4692.525194289579;0.01913479174254462;-7.320022632484324e-05;500.0;-500.0000732002263
0.34000000000000025;-1034299272.0;-1015527836.0;-1781.0;-4692.413653002721;-4692.506059497837;0.015823707199160708;-5.30208126292564e-05;333.3333333333333;-333.33338635414594
0.34400000000000025;-1053068928.0;-1034297796.0;-1476.0;-4692.4136531000095;-4692.490235790638;0.013114787916492787;-2.4322162062162533e-05;250.0;-250.00002432216206
0.34800000000000025;-1071838583.0;-1053067704.0;-1224.0;-4692.41365311341;-4692.477121002721;0.01083590271173307;-3.350123733980581e-06;250.0;-250.00000335012373
0.35200000000000026;-1090608239.0;-1071837569.0;-1014.0;-4692.413653088132;-4692.466285100009;0.009029986599671247;6.319396561593749e-06;250.0;-249.99999368060344
0.35600000000000026;-1109377894.0;-1090607398.0;-841.0;-4692.413653057412;-4692.45725511341;0.007439025277562905;7.68000063544605e-06;166.66666666666666;-166.66665898666602
0.36000000000000026;-1128147550.0;-1109377197.0;-697.0;-4692.413653036519;-4692.449816088132;0.0061920307198306546;5.22345544595737e-06;166.66666666666666;-166.6666614432112
0.36400000000000027;-1146917205.0;-1128146971.0;-579.0;-4692.413653027719;-4692.443624057412;0.0050740208935167175;2.19984030991327e-06;83.33333333333333;-83.33333113349302
0.36800000000000027;-1165686861.0;-1146916725.0;-480.0;-4692.413653027097;-4692.438550036519;0.004257008799868345;1.5552359400317073e-07;166.66666666666666;-166.66666651114306
0.3720000000000003;-1184456516.0;-1165686462.0;-399.0;-4692.413653030019;-4692.434293027719;0.0034830006215997855;-7.305516191991046e-07;83.33333333333333;-83.33333406388495
0.3760000000000003;-1203226172.0;-1184456185.0;-331.0;-4692.413653033129;-4692.430810027097;0.002923997078141838;-7.773905963404104e-07;83.33333333333333;-83.33333411072392
0.3800000000000003;-1221995827.0;-1203225896.0;-276.0;-4692.413653035431;-4692.427886030019;0.0023649968907193397;-5.754827725468203e-07;0.0;-5.754827725468203e-07
0.3840000000000003;-1240765483.0;-1221995598.0;-229.0;-4692.413653036114;-4692.4255210331285;0.002020997697400162;-1.7075763025786728e-07;0.0;-1.7075763025786728e-07
0.3880000000000003;-1259535138.0;-1240765292.0;-191.0;-4692.413653036052;-4692.423500035431;0.0016339993171641254;1.546140993013978e-08;0.0;1.546140993013978e-08
0.3920000000000003;-1278304794.0;-1259534979.0;-159.0;-4692.413653035741;-4692.421866036114;0.0013760000620095525;7.776179700158536e-08;83.33333333333333;-83.33333325557153
0.3960000000000003;-1297074449.0;-1278304660.0;-134.0;-4692.413653035368;-4692.420490036052;0.0010750003111752449;9.322320693172514e-08;83.33333333333333;-83.33333324011012
0.4000000000000003;-1315844105.0;-1297074337.0;-112.0;-4692.413653035182;-4692.419415035741;0.0009460003730055178;4.661160346586257e-08;83.33333333333333;-83.33333328672173
0.4040000000000003;-1334613760.0;-1315844010.0;-95.0;-4692.413653035119;-4692.418469035368;0.0007310001865334925;1.5688783605583012e-08;0.0;1.5688783605583012e-08
0.4080000000000003;-1353383416.0;-1334613680.0;-80.0;-4692.413653035057;-4692.417738035181;0.0006450000619224738;1.546140993013978e-08;0.0;1.546140993013978e-08
0.4120000000000003;-1372153071.0;-1353383348.0;-68.0;-4692.413653035119;-4692.417093035119;0.000516000061907107;-1.546140993013978e-08;0.0;-1.546140993013978e-08
0.4160000000000003;-1390922727.0;-1372153014.0;-57.0;-4692.413653035119;-4692.416577035057;0.0004729999382107053;0.0;0.0;0.0
0.4200000000000003;-1409692382.0;-1390922678.0;-49.0;-4692.413653035182;-4692.416104035119;0.0003440000000409782;-1.5688783605583012e-08;0.0;-1.5688783605583012e-08
0.4240000000000003;-1428462038.0;-1409692341.0;-41.0;-4692.413653035243;-4692.415760035119;0.00034399993728584377;-1.546140993013978e-08;0.0;-1.546140993013978e-08
0.4280000000000003;-1447231693.0;-1428462002.0;-36.0;-4692.413653035243;-4692.415416035182;0.00021499993817997165;0.0;0.0;0.0
0.43200000000000033;-1466001349.0;-1447231662.0;-31.0;-4692.413653035243;-4692.415201035244;0.00021500000002561137;0.0;0.0;0.0
0.43600000000000033;-1484771004.0;-1466001321.0;-28.0;-4692.413653035306;-4692.414986035244;0.00012900000001536682;-1.5688783605583012e-08;0.0;-1.5688783605583012e-08
0.44000000000000034;-1503540660.0;-1484770980.0;-24.0;-4692.413653035243;-4692.414857035244;0.00017199993726535467;1.5688783605583012e-08;0.0;1.5688783605583012e-08
0.44400000000000034;-1522310315.0;-1503540638.0;-22.0;-4692.413653035119;-4692.414685035306;8.600006276537897e-05;3.115019353572279e-08;0.0;3.115019353572279e-08
0.44800000000000034;-1541079971.0;-1522310296.0;-19.0;-4692.413653035243;-4692.414599035244;0.00012900012461614097;-3.115019353572279e-08;0.0;-3.115019353572279e-08
0.45200000000000035;-1559849626.0;-1541079953.0;-18.0;-4692.413653034994;-4692.414470035119;4.299987540434813e-05;6.230038707144558e-08;0.0;6.230038707144558e-08
0.45600000000000035;-1578619282.0;-1559849610.0;-16.0;-4692.413653035306;-4692.4144270352435;8.600024921179283e-05;-7.79891706770286e-08;0.0;-7.79891706770286e-08
0.46000000000000035;-1597388937.0;-1578619267.0;-15.0;-4692.413653035243;-4692.414341034994;4.2999688048439566e-05;1.5688783605583012e-08;0.0;1.5688783605583012e-08
0.46400000000000036;-1616158593.0;-1597388924.0;-13.0;-4692.413653035119;-4692.414298035306;8.600006276537897e-05;3.115019353572279e-08;0.0;3.115019353572279e-08
0.46800000000000036;-1634928248.0;-1616158580.0;-13.0;-4692.413653035182;-4692.4142120352435;1.2460077414289117e-10;-1.5688783605583012e-08;0.0;-1.5688783605583012e-08
0.47200000000000036;-1653697904.0;-1634928236.0;-12.0;-4692.413653035057;-4692.414212035119;4.299993724998785e-05;3.115019353572279e-08;0.0;3.115019353572279e-08
0.47600000000000037;-1672467559.0;-1653697892.0;-12.0;-4692.413653035182;-4692.414169035182;1.2460077414289117e-10;-3.115019353572279e-08;0.0;-3.115019353572279e-08
0.48000000000000037;-1691237215.0;-1672467548.0;-11.0;-4692.413653035306;-4692.414169035057;4.299987540434813e-05;-3.115019353572279e-08;0.0;-3.115019353572279e-08
0.4840000000000004;-1710006870.0;-1691237204.0;-11.0;-4692.413653035243;-4692.414126035182;-1.2460077414289117e-10;1.5688783605583012e-08;0.0;1.5688783605583012e-08
0.4880000000000004;-1728776526.0;-1710006860.0;-10.0;-4692.413653035243;-4692.414126035306;4.3000062760256696e-05;0.0;0.0;0.0
0.4920000000000004;-1747546181.0;-1728776516.0;-10.0;-4692.413653035306;-4692.4140830352435;0.0;-1.5688783605583012e-08;0.0;-1.5688783605583012e-08
0.4960000000000004;-1766315837.0;-1747546172.0;-9.0;-4692.413653035057;-4692.4140830352435;4.299993724998785e-05;6.230038707144558e-08;0.0;6.230038707144558e-08
0.5000000000000003;-1785085492.0;-1766315828.0;-9.0;-4692.413653035306;-4692.414040035306;2.4920154828578234e-10;-6.230038707144558e-08;0.0;-6.230038707144558e-08
0.5040000000000003;-1803855148.0;-1785085484.0;-8.0;-4692.413653035057;-4692.414040035057;4.299975080357399e-05;6.230038707144558e-08;0.0;6.230038707144558e-08
