Zeit[sec];Sollposition[°];Istposition[°];Positionsschleppfehler[°];Sollgeschwindigkeit[°/s];Istgeschwindigkeit[°/s];Geschwindigkeitsdifferenz[°/s];Sollbeschleunigung[°/s*s];Istbeschleunigung[°/s*s];Beschleunigungsdifferenz[°/s*s]
0.0;0.0;5.0;-5.0;-0.0;-0.00021499999999999997;0.0;0.0;0.0;0.0
0.004;0.0;5.0;-5.0;-0.0;-0.00021499999999999997;0.0;0.0;0.0;0.0
0.008;0.0;5.0;-5.0;-0.0;-0.00021499999999999997;0.0;0.0;0.0;0.0
0.012;0.0;5.0;-5.0;-0.0;-0.00021499999999999997;0.0;0.0;0.0;0.0
0.016;0.0;5.0;-5.0;-0.0;-0.00021499999999999997;0.0;0.0;0.0;0.0
0.02;0.0;5.0;-5.0;-0.0;-0.00021499999999999997;0.0;0.0;0.0;0.0
0.024;0.0;5.0;-5.0;-0.0;-0.00021499999999999997;0.0;0.0;0.0;0.0
0.028;0.0;5.0;-5.0;-0.0;-0.00021499999999999997;0.0;0.0;0.0;0.0
0.032;0.0;5.0;-5.0;-0.0;-0.00021499999999999997;0.0;0.0;0.0;0.0
0.036000000000000004;0.0;5.0;-5.0;-0.0;-0.00021499999999999997;0.0;0.0;0.0;0.0
0.04000000000000001;0.0;5.0;-5.0;-0.0;-0.00021499999999999997;0.0;0.0;0.0;0.0
0.04400000000000001;0.0;5.0;-5.0;-0.0;-0.00021499999999999997;0.0;0.0;0.0;0.0
0.048000000000000015;0.0;5.0;-5.0;-0.0;-0.00021499999999999997;0.0;0.0;0.0;0.0
0.05200000000000002;0.0;5.0;-5.0;-0.0;-0.00021499999999999997;0.0;0.0;0.0;0.0
0.05600000000000002;-246.0;5.0;-5.0;-0.06165314975828626;-0.00021499999999999997;0.0;-15.413287439571564;0.0;-15.413287439571564
0.060000000000000026;-2704.0;5.0;-251.0;-0.6144151222469989;-0.00021499999999999997;-0.07223114975828625;-138.19049312217817;0.0;-138.19049312217817
0.06400000000000003;-14784.0;-284.0;-2420.0;-3.019974916105015;-0.07244614975828625;-0.6460289724887127;-601.389948464504;0.0;-601.389948464504
0.06800000000000003;-54712.0;-3157.0;-11627.0;-9.982046827589347;-0.7184751222469989;-2.801460793858016;-1740.517977871083;0.0;-1740.517977871083
0.07200000000000004;-156003.0;-17236.0;-37476.0;-25.322793406393682;-3.5199359161050148;-8.073578911484333;-3835.186644701084;0.0;-3835.186644701084
0.07600000000000004;-367852.0;-63610.0;-92393.0;-52.962267099748125;-11.593514827589347;-17.70217757880433;-6909.868423338611;0.0;-6909.868423338611
0.08000000000000004;-750485.0;-180792.0;-187060.0;-95.65828704877238;-29.29569240639368;-31.710154693354443;-10674.004987256063;-83.33333333333333;-10590.671653922731
0.08400000000000005;-1369154.0;-424815.0;-325670.0;-154.6671478902635;-61.005847099748124;-48.65624994902426;-14752.215210372779;-250.0;-14502.215210372779
0.08800000000000005;-2291087.0;-863463.0;-505691.0;-230.4833537536954;-109.66209704877238;-66.7497638414911;-18954.051465857978;-500.0;-18454.051465857978
0.09200000000000005;-3584722.0;-1569110.0;-721977.0;-323.40872934455473;-176.41186089026348;-85.11650386343194;-23231.34389771483;-916.6666666666666;-22314.67723104816
0.09600000000000006;-5317552.0;-2615223.0;-969499.0;-433.207482121508;-261.5283647536954;-103.56882159085927;-27449.68819423832;-1416.6666666666667;-26033.021527571655
0.10000000000000006;-7551811.0;-4075611.0;-1241941.0;-558.5647086095066;-365.0971863445547;-121.5137587769533;-31339.306621999654;-2083.3333333333335;-29255.973288666322
0.10400000000000006;-10340487.0;-6022054.0;-1529757.0;-697.1689343328463;-486.610945121508;-137.7333144879986;-34651.05643083493;-2916.6666666666665;-31734.38976416826
0.10800000000000007;-13724900.0;-8519431.0;-1821056.0;-846.1032851031788;-624.3442596095066;-151.13008272333968;-37233.58769258311;-3833.3333333333335;-33400.25435924978
0.11200000000000007;-17733359.0;-11621328.0;-2103572.0;-1002.114650998562;-775.4743423328463;-161.08253877033246;-39002.841473845794;-4916.666666666667;-34086.17480717912
0.11600000000000008;-22381560.0;-15367555.0;-2365804.0;-1162.0500552009996;-936.5568811031787;-167.28734189538318;-39983.85105060942;-6083.333333333333;-33900.51771727608
0.12000000000000008;-27675389.0;-19782931.0;-2598629.0;-1323.4573003744188;-1103.844222998562;-169.94687920243769;-40351.81129335478;-7333.333333333333;-33018.47796002145
0.12400000000000008;-33614938.0;-24878095.0;-2797294.0;-1484.8872638796881;-1273.7911022009996;-169.94984017341926;-40357.490876317344;-8666.666666666666;-31690.824209650676
0.12800000000000009;-40198021.0;-30653058.0;-2961880.0;-1645.7705784473414;-1443.7409423744189;-168.50716150526932;-40220.82864191333;-9916.666666666666;-30304.16197524666
0.1320000000000001;-47422362.0;-37102050.0;-3095971.0;-1806.0851414137117;-1612.2481038796882;-166.64922756765327;-40078.64074159255;-11250.0;-28828.64074159255
0.1360000000000001;-55286490.0;-44217639.0;-3204723.0;-1966.031778777633;-1778.8973314473415;-164.9908989663702;-39986.65934098034;-12583.333333333334;-27403.326007647003
0.1400000000000001;-63789787.0;-51993191.0;-3293299.0;-2125.8243290165265;-1943.8882304137117;-163.75540536392123;-39948.137559723364;-13916.666666666666;-26031.4708930567
0.1440000000000001;-72932195.0;-60423765.0;-3366022.0;-2285.6017332726424;-2107.643635777633;-162.91963923889352;-39944.351064028975;-15250.0;-24694.35106402898
0.1480000000000001;-82713881.0;-69506018.0;-3426177.0;-2445.421488416093;-2270.5632750165264;-162.36406925611618;-39954.93878586262;-16500.0;-23454.93878586262
0.1520000000000001;-93135033.0;-79237727.0;-3476154.0;-2605.2879066748474;-2432.9273442726426;-161.96876614345047;-39966.60456468862;-17750.0;-22216.604564688623
0.1560000000000001;-104195767.0;-89617311.0;-3517722.0;-2765.1834300065434;-2594.896110416093;-161.65384225875414;-39973.88083292401;-19000.0;-20973.88083292401
0.16000000000000011;-115896125.0;-100643510.0;-3552257.0;-2925.0891881700727;-2756.549952674847;-161.38052833169604;-39976.439540882326;-20250.0;-19726.439540882326
0.16400000000000012;-128236076.0;-112315231.0;-3580894.0;-3084.987602766326;-2917.9304810065432;-161.13714916352956;-39974.60364906328;-21500.0;-18474.603649063283
0.16800000000000012;-141215447.0;-124631501.0;-3604575.0;-3244.842609714063;-3079.067630170073;-160.91669759625302;-39963.75173693434;-22750.0;-17213.75173693434
0.17200000000000013;-154833760.0;-137591438.0;-3624009.0;-3404.5781071176034;-3239.984327766326;-160.69066894773732;-39933.874350885046;-24000.0;-15933.87435088505
0.17600000000000013;-169089449.0;-151194137.0;-3639623.0;-3563.9221347498483;-3400.674996714063;-160.40689940354014;-39836.00690806122;-25333.333333333332;-14502.67357472789
0.18000000000000013;-183976925.0;-165438464.0;-3650985.0;-3721.8688212349502;-3561.0818961176033;-159.83259363224488;-39486.67162127549;-26583.333333333332;-12903.338287942159
0.18400000000000014;-199481627.0;-180322121.0;-3654804.0;-3876.175381683931;-3720.914489749848;-158.11090348510197;-38576.64011224517;-27833.333333333332;-10743.30677891184
0.18800000000000014;-215576208.0;-195838222.0;-3643405.0;-4023.645001865066;-3879.02539323495;-153.81640344898096;-36867.40504528382;-29000.0;-7867.405045283817
0.19200000000000014;-232219783.0;-211969589.0;-3606619.0;-4160.893433658598;-4032.841796683931;-145.8878221811351;-34312.10794838296;-30333.333333333332;-3978.774615049627
0.19600000000000015;-249359290.0;-228684507.0;-3535276.0;-4284.876575339111;-4178.729618865066;-134.18068279353156;-30995.785420128188;-31500.0;504.21457987181384
0.20000000000000015;-266932059.0;-245936148.0;-3423142.0;-4393.192065683808;-4312.910301658598;-119.16137968051316;-27078.872586174384;-32666.666666666668;5587.794080492284
0.20400000000000015;-284869232.0;-263664434.0;-3267625.0;-4484.293119520475;-4432.071681339111;-101.62825934469765;-22775.26345916658;-33583.333333333336;10808.069874166755
0.20800000000000016;-303099154.0;-281799233.0;-3069999.0;-4557.480227665159;-4533.699940683809;-82.6031358366663;-18296.77703617108;-34500.0;16203.222963828921
0.21200000000000016;-321550451.0;-300264445.0;-2834709.0;-4612.824096286368;-4616.303076520475;-63.06963814468418;-13835.967155302342;-35083.333333333336;21247.366178030992
0.21600000000000016;-340156147.0;-318981935.0;-2568516.0;-4651.423695646529;-4679.372714665159;-43.897569621209186;-9649.899840040234;-35500.0;25850.100159959766
0.22000000000000017;-358858930.0;-337875016.0;-2281131.0;-4675.695452593132;-4723.270284286368;-26.242044360161344;-6067.939236650773;-35583.333333333336;29515.39409668256
0.22400000000000017;-377614838.0;-356873065.0;-1985865.0;-4688.976916895412;-4749.51232864653;-11.575318946603147;-3320.3660755698365;-35416.666666666664;32096.300591096828
0.22800000000000017;-396393750.0;-375917415.0;-1697423.0;-4694.727795783248;-4761.087647593133;-0.8784583022788865;-1437.7197219591835;-35000.0;33562.28027804082
0.23200000000000018;-415177808.0;-394965279.0;-1428471.0;-4696.014173973071;-4761.966105895412;5.814057112163027;-321.59454745556104;-34250.0;33928.40545254444
0.23600000000000018;-433958759.0;-413989887.0;-1187921.0;-4695.237577577942;-4756.152048783249;9.057271810177554;194.14909878219078;-33333.333333333336;33527.482432115525
0.24000000000000019;-452734607.0;-432978266.0;-980493.0;-4693.961893895097;-4747.094776973071;9.696000395128976;318.92092071120715;-32166.666666666668;32485.587587377875
0.2440000000000002;-471506414.0;-451927861.0;-806746.0;-4692.951391707283;-4737.398776577942;8.746804682845323;252.6255469535954;-31000.0;31252.625546953597
0.2480000000000002;-490276029.0;-470842468.0;-663946.0;-4692.403659302216;-4728.651971895097;7.150902187813699;136.93310126677716;-29666.666666666668;29803.599767933447
0.25200000000000017;-509044936.0;-489728472.0;-547557.0;-4692.226519158833;-4721.501069707283;5.552459405067566;44.28503584563259;-28333.333333333332;28377.618369178963
0.25600000000000017;-527813932.0;-508592266.0;-452670.0;-4692.2487602325;-4715.9486103022155;4.257281143381988;-5.560268416729741;-26916.666666666668;26911.10639824994
0.2600000000000002;-546583260.0;-527439031.0;-374901.0;-4692.331746567765;-4711.6913291588335;3.3218259263330765;-20.746583816162456;-25583.333333333332;25562.58674951717
0.2640000000000002;-565352866.0;-546272509.0;-310751.0;-4692.401172551265;-4708.3695032325;2.6754636647356165;-17.356495874992106;-24250.0;24232.643504125008
0.2680000000000002;-584122608.0;-565095285.0;-257581.0;-4692.435382959969;-4705.694039567765;2.216884016500444;-8.552602175996071;-22916.666666666668;22908.11406449067
0.2720000000000002;-602892373.0;-583909193.0;-213415.0;-4692.44091602383;-4703.477155551264;1.864927591295782;-1.3832659653871815;-21583.333333333332;21581.950067367943
0.2760000000000002;-621662103.0;-602715641.0;-176732.0;-4692.432285273818;-4701.612227959969;1.5718359361380863;2.157687503085981;-20250.0;20252.157687503088
0.2800000000000002;-640431788.0;-621515802.0;-146301.0;-4692.421140468166;-4700.0403920238305;1.3171637500126963;2.7862014128459123;-19000.0;19002.786201412848
0.2840000000000002;-659201442.0;-640310694.0;-121094.0;-4692.413254466053;-4698.723228273818;1.0950458056513526;1.9715005282705533;-17750.0;17751.97150052827
0.2880000000000002;-677971082.0;-659101206.0;-100236.0;-4692.409716550618;-4697.628182468166;0.9047800021135117;0.8844788587794028;-16416.666666666668;16417.551145525445
0.2920000000000002;-696740720.0;-677888099.0;-82983.0;-4692.409285932074;-4696.723402466053;0.7454169154343617;0.10765463593997993;-15166.666666666666;15166.774321302606
0.2960000000000002;-715510362.0;-696672010.0;-68710.0;-4692.410262235425;-4695.9779855506185;0.6141696185441106;-0.24407583759966656;-13916.666666666666;13916.422590829066
0.3000000000000002;-734280008.0;-715453465.0;-56897.0;-4692.411420173495;-4695.363815932074;0.5069826966491746;-0.28948451745236525;-12666.666666666666;12666.377182149214
0.3040000000000002;-753049658.0;-734232892.0;-47116.0;-4692.4122004085675;-4694.856833235425;0.4194250619302693;-0.19505876821312995;-11333.333333333334;11333.13827456512
0.3080000000000002;-771819309.0;-753010641.0;-39017.0;-4692.412526976696;-4694.437408173495;0.3474767649277055;-0.08164203222804645;-10083.333333333334;10083.251691301106
0.3120000000000002;-790588960.0;-771787000.0;-32309.0;-4692.412546225201;-4694.089931408567;0.28811743187088723;-0.004812126235265168;-8833.333333333334;8833.328521207099
0.3160000000000002;-809358611.0;-790562207.0;-26753.0;-4692.412436076553;-4693.801813976696;0.23888875149532396;0.02753716216830071;-7666.666666666667;7666.694203828835
0.32000000000000023;-828128261.0;-809336458.0;-22153.0;-4692.412317691272;-4693.562925225201;0.1979101486485888;0.029596320246128016;-6333.333333333333;6333.362929653579
0.32400000000000023;-846897911.0;-828109918.0;-18343.0;-4692.412242404214;-4693.3650150765525;0.1639483852804915;0.01882176434264693;-5250.0;5250.018821764343
0.32800000000000024;-865667561.0;-846882722.0;-15189.0;-4692.412213753135;-4693.201066691272;0.13569728705806483;0.007162769861679408;-4000.0;4000.0071627698617
0.33200000000000024;-884437210.0;-865654983.0;-12578.0;-4692.412214894329;-4693.065369404214;0.11230165107917855;-0.0002852984835044481;-3083.3333333333335;3083.33304803485
0.33600000000000024;-903206860.0;-884426795.0;-10415.0;-4692.412227465496;-4692.953067753135;0.09300785880623152;-0.0031427916837856174;-2083.3333333333335;2083.3301905416497
0.34000000000000025;-921976510.0;-903198235.0;-8625.0;-4692.412239681523;-4692.8600598943285;0.07695742883333878;-0.003054006810998544;-1333.3333333333333;1333.3302793265223
0.34400000000000025;-940746160.0;-921969367.0;-7143.0;-4692.412246985003;-4692.783102465495;0.06371378397216176;-0.0018258699583384441;-583.3333333333334;583.331507463375
0.34800000000000025;-959515810.0;-940740244.0;-5916.0;-4692.412249479101;-4692.719388681523;0.052753696520085214;-0.0006235245564312208;-83.33333333333333;83.3327098087769
0.35200000000000026;-978285460.0;-959510910.0;-4900.0;-4692.412249083353;-4692.666634985003;0.04368550590243103;9.893688002193812e-05;166.66666666666666;-166.66656772978664
0.35600000000000026;-997055110.0;-978281401.0;-4059.0;-4692.412247691117;-4692.6229494791005;0.03616339574728045;0.00034805907489499077;416.6666666666667;-416.6663186075918
0.36000000000000026;-1015824759.0;-997051748.0;-3362.0;-4692.412246445763;-4692.586786083353;0.029972392236231826;0.00031133845368458424;500.0;-499.9996886615463
0.36400000000000027;-1034594409.0;-1015821975.0;-2784.0;-4692.412245745308;-4692.556813691117;0.02485524535404693;0.00017511388250568416;583.3333333333334;-583.3331582194509
0.36800000000000027;-1053364059.0;-1034592102.0;-2307.0;-4692.412245535369;-4692.531958445763;0.020511700455244863;5.2484665502561256e-05;416.6666666666667;-416.6666141820012
0.3720000000000003;-1072133709.0;-1053362147.0;-1912.0;-4692.412245602903;-4692.511446745308;0.01698520993886632;-1.6883404896361753e-05;416.6666666666667;-416.6666835500716
0.3760000000000003;-1090903359.0;-1072132124.0;-1585.0;-4692.412245754511;-4692.494461535369;0.014060932466236409;-3.790205482800957e-05;333.3333333333333;-333.33337123538814
0.3800000000000003;-1109672724.0;-1090902045.0;-1314.0;-4692.341097413389;-4692.480400602903;0.011652848391349835;17.78708528036077;333.3333333333333;-315.54624805297254
0.3840000000000003;-1128439965.0;-1109671919.0;-805.0;-4691.809926299224;-4692.468747754511;0.09303534112223133;132.7927785414431;250.0;-117.20722145855689
0.3880000000000003;-1147199502.0;-1128441421.0;1456.0;-4689.883999865868;-4692.375712413389;0.6283941141655305;481.48160833898146;166.66666666666666;314.81494167231483
0.3920000000000003;-1165939862.0;-1147208410.0;8908.0;-4685.089769581302;-4691.7473182992235;2.2463624333558982;1198.557571141464;166.66666666666666;1031.8909044747973
0.3960000000000003;-1184641299.0;-1165966413.0;26551.0;-4675.35898771169;-4689.500955865868;5.552879284565279;2432.6954674029366;83.33333333333333;2349.362134069603
0.4000000000000003;-1203272902.0;-1184702205.0;60906.0;-4657.90075265115;-4683.948076581302;11.20804686961219;4364.558765135143;166.66666666666666;4197.892098468476
0.4040000000000003;-1221791181.0;-1203393165.0;120263.0;-4629.569453958919;-4672.74002971169;20.010586060540845;7082.82467305753;166.66666666666666;6916.158006390863
0.4080000000000003;-1240141750.0;-1222004082.0;212901.0;-4587.642048524685;-4652.729443651149;32.31473269222988;10481.851358558515;250.0;10231.851358558515
0.4120000000000003;-1258263056.0;-1240485740.0;343990.0;-4530.326335512871;-4620.414710958919;47.56423243423433;14328.928252953574;416.6666666666667;13912.261586286908
0.4160000000000003;-1276090419.0;-1258777141.0;514085.0;-4456.84042501156;-4572.850478524685;64.62979801181427;18371.47762532777;666.6666666666666;17704.810958661103
0.4200000000000003;-1293559934.0;-1276810023.0;719604.0;-4367.37851702249;-4508.220680512871;82.32322750131061;22365.476997267477;1000.0;21365.476997267477
0.4240000000000003;-1310611959.0;-1294513612.0;953678.0;-4263.006103406655;-4425.89745301156;99.52708998907019;26093.10340395882;1500.0;24593.10340395882
0.4280000000000003;-1327193582.0;-1311819093.0;1207134.0;-4145.405591848512;-4326.37036302249;115.2710216158348;29400.127889535725;2083.3333333333335;27316.794556202392
0.43200000000000033;-1343260808.0;-1328663490.0;1469908.0;-4016.8063003620264;-4211.099341406655;128.8997935581433;32149.82287162138;3000.0;29149.82287162138
0.43600000000000033;-1358781133.0;-1344992288.0;1731480.0;-3880.080934635251;-4082.199547848512;139.84688748648568;34181.34143169379;3833.3333333333335;30348.00809836046
0.44000000000000034;-1373734715.0;-1360761698.0;1980565.0;-3738.3953057020826;-3942.352660362026;147.43602072677504;35421.40723329214;4833.333333333333;30588.07389995881
0.44400000000000034;-1388112561.0;-1375941364.0;2206649.0;-3594.4614214364183;-3794.916639635251;151.4072409331684;35983.47106641609;5833.333333333333;30150.137733082753
0.44800000000000034;-1401912774.0;-1390515401.0;2402840.0;-3450.05299243346;-3643.5093987020828;152.3700972656643;36102.10725073955;7000.0;29102.10725073955
0.45200000000000035;-1415136811.0;-1404479958.0;2567184.0;-3306.0091784458887;-3491.1393014364185;151.47522100295828;36010.95349689285;8250.0;27760.953496892853
0.45600000000000035;-1427786884.0;-1417838614.0;2701803.0;-3162.518212471346;-3339.66408043346;149.83243098757157;35872.74149363566;9416.666666666666;26456.074826968994
0.46000000000000035;-1439864679.0;-1430597940.0;2811056.0;-3019.448457176352;-3189.8316494458886;148.18884497454246;35767.43882374853;10583.333333333334;25184.1054904152
0.46400000000000036;-1451371050.0;-1442764511.0;2899832.0;-2876.5927719934416;-3041.642804471346;146.88712329499413;35713.921295727574;11666.666666666666;24047.254629060906
0.46800000000000036;-1462306220.0;-1454343533.0;2972483.0;-2733.79218379537;-2894.755681176352;145.97967818291045;35700.14704951791;12916.666666666666;22783.480382851245
0.47200000000000036;-1472670085.0;-1465338637.0;3032417.0;-2590.9663231157797;-2748.7760029934416;145.37775019807168;35706.46516989757;14000.0;21706.46516989757
0.47600000000000037;-1482462468.0;-1475752230.0;3082145.0;-2448.0956015503157;-2603.39825279537;144.96416467959034;35717.680391366004;15250.0;20467.680391366004
0.48000000000000037;-1491683233.0;-1485585966.0;3123498.0;-2305.1911001820818;-2458.4340881157796;144.64890056546392;35726.12534205848;16333.333333333334;19392.792008725148
0.4840000000000004;-1500332318.0;-1494841106.0;3157873.0;-2162.27111151885;-2313.7851875503156;144.382626368234;35729.99716580796;17500.0;18229.99716580796
0.4880000000000004;-1508409716.0;-1503518716.0;3186398.0;-2019.349296490352;-2169.4025611820816;144.14656366323175;35730.45375712451;18583.333333333332;17147.120423791177
0.4920000000000004;-1515915444.0;-1511619739.0;3210023.0;-1876.431955577944;-2025.2559975188499;143.93769002849808;35729.33522810195;19666.666666666668;16062.668561435277
0.4960000000000004;-1522849524.0;-1519145012.0;3229568.0;-1733.5199115662929;-1881.3183074903518;143.75777591240762;35728.01100291281;20833.333333333332;14894.677669579476
0.5000000000000003;-1529211970.0;-1526095254.0;3245730.0;-1590.6114462263076;-1737.5605315779442;143.60701001165125;35727.11633499631;21916.666666666668;13810.449668329642
0.5040000000000003;-1535002788.0;-1532471068.0;3259098.0;-1447.704484726717;-1593.953521566293;143.48328933998528;35726.74037489764;23083.333333333332;12643.407041564313
