Zeit[sec];Sollposition[°];Istposition[°];Positionsschleppfehler[°];Sollgeschwindigkeit[°/s];Istgeschwindigkeit[°/s];Geschwindigkeitsdifferenz[°/s];Sollbeschleunigung[°/s*s];Istbeschleunigung[°/s*s];Beschleunigungsdifferenz[°/s*s]
0.0;-9979199999.0;-9979199995.0;-4.0;0.0;-0.00023999999999999998;0.0;0.0;0.0;0.0
0.004;-9979199999.0;-9979199995.0;-4.0;0.0;-0.00023999999999999998;0.0;0.0;0.0;0.0
0.008;-9979199999.0;-9979199995.0;-4.0;0.0;-0.00023999999999999998;0.0;0.0;0.0;0.0
0.012;-9979199999.0;-9979199995.0;-4.0;0.0;-0.00023999999999999998;0.0;0.0;0.0;0.0
0.016;-9979199999.0;-9979199995.0;-4.0;0.0;-0.00023999999999999998;0.0;0.0;0.0;0.0
0.02;-9979199999.0;-9979199995.0;-4.0;0.0;-0.00023999999999999998;0.0;0.0;0.0;0.0
0.024;-9979199999.0;-9979199995.0;-4.0;0.0;-0.00023999999999999998;0.0;0.0;0.0;0.0
0.028;-9979199999.0;-9979199995.0;-4.0;0.0;-0.00023999999999999998;0.0;0.0;0.0;0.0
0.032;-9979199999.0;-9979199995.0;-4.0;0.0;-0.00023999999999999998;0.0;0.0;0.0;0.0
0.036000000000000004;-9979199999.0;-9979199995.0;-4.0;0.0;-0.00023999999999999998;0.0;0.0;0.0;0.0
0.04000000000000001;-9979199999.0;-9979199995.0;-4.0;0.0;-0.00023999999999999998;0.0;0.0;0.0;0.0
0.04400000000000001;-9979199999.0;-9979199995.0;-4.0;0.0;-0.00023999999999999998;0.0;0.0;0.0;0.0
0.048000000000000015;-9979199999.0;-9979199995.0;-4.0;0.0;-0.00023999999999999998;0.0;0.0;0.0;0.0
0.05200000000000002;-9979199999.0;-9979199995.0;-4.0;0.0;-0.00023999999999999998;0.0;0.0;0.0;0.0
0.05600000000000002;-9979199999.0;-9979199995.0;-4.0;8.656197209923802e-10;-0.00023999999999999998;0.0;2.1640493024809505e-07;0.0;2.1640493024809505e-07
0.060000000000000026;-9979199999.0;-9979199995.0;-4.0;5.770798139949201e-10;-0.00023999999999999998;8.656197210030973e-10;-7.213497674936503e-08;0.0;-7.213497674936503e-08
0.06400000000000003;-9979304671.0;-9979199995.0;-4.0;-26.167945640174832;-0.00023999913438027898;-2.885399070010324e-10;-6541.9864101879775;0.0;-6541.9864101879775
0.06800000000000003;-9979400468.0;-9979199995.0;-104676.0;-23.94920052652666;-0.00023999942292018598;-32.448265640751906;554.686278412043;0.0;554.686278412043
0.07200000000000004;-9979520253.0;-9979329789.0;-70679.0;-29.946283696542796;-32.44850564017483;4.258565113648171;-1499.270792504034;-83.33333333333333;-1415.9374591707008
0.07600000000000004;-9979649292.0;-9979442548.0;-77705.0;-32.259754398309354;-28.18994052652666;-6.418643170016136;-578.3676754416396;-83.33333333333333;-495.03434210830625
0.08000000000000004;-9979781584.0;-9979580982.0;-68310.0;-33.0729671373854;-34.608583696542794;-1.7497707017665576;-203.30318476901078;-166.66666666666666;-36.63651810234411
0.08400000000000005;-9979917921.0;-9979726415.0;-55169.0;-34.084256781536666;-36.35835439830935;-0.024752739076042474;-252.82241103781723;-250.0;-2.8224110378172185
0.08800000000000005;-9980055343.0;-9979871947.0;-45974.0;-34.355469649559836;-36.383107137385394;-0.4595896441512721;-67.8032170057925;-333.3333333333333;265.5301163275408
0.09200000000000005;-9980183688.0;-9980019317.0;-36026.0;-32.0862199079896;-36.84269678153667;0.3256671319768287;567.3124353925587;-333.3333333333333;900.645768725892
0.09600000000000006;-9980294171.0;-9980165385.0;-18303.0;-27.620852074125477;-36.51702964955984;3.332629741570237;1116.3419584660312;-250.0;1366.3419584660312
0.10000000000000006;-9980378353.0;-9980298122.0;3951.0;-21.045453251763718;-33.1843999079896;5.800607833864124;1643.8497055904397;-250.0;1893.8497055904397
0.10400000000000006;-9980420959.0;-9980407657.0;29304.0;-10.651443816585306;-27.383792074125477;8.09657882236176;2598.502358794603;-250.0;2848.502358794603
0.10800000000000007;-9980412156.0;-9980484805.0;63846.0;2.2006896455797698;-19.287213251763717;12.46652943517841;3213.033365541269;-250.0;3463.033365541269
0.11200000000000007;-9980356010.0;-9980512087.0;99931.0;14.036504899162509;-6.820683816585307;15.017233462165075;2958.953813395685;-166.66666666666666;3125.6204800623514
0.11600000000000008;-9980262636.0;-9980479301.0;123291.0;23.34351662364859;8.196549645579768;13.23741525358274;2326.7529311215203;0.0;2326.7529311215203
0.12000000000000008;-9980143323.0;-9980393566.0;130930.0;29.828346664204044;21.433964899162508;9.76535172448608;1621.2075101388637;83.33333333333333;1537.8741768055304
0.12400000000000008;-9980009162.0;-9980268769.0;125446.0;33.540263366048784;31.19931662364859;6.1557900405554555;927.9791754611848;166.66666666666666;761.3125087945182
0.12800000000000009;-9979868885.0;-9980119349.0;110187.0;35.06917989684229;37.355106664204044;2.7963767018447356;382.2291326983773;166.66666666666666;215.56246603171067
0.1320000000000001;-9979727568.0;-9979958744.0;89859.0;35.32910357290877;40.15148336604878;0.30923653079351254;64.98091901661951;333.3333333333333;-268.3524143167138
0.1360000000000001;-9979591640.0;-9979796902.0;69334.0;33.98218539355956;40.46071989684229;-0.9715763239335189;-336.72954483730246;333.3333333333333;-670.0628781706357
0.1400000000000001;-9979473152.0;-9979638946.0;47306.0;29.621897063342036;39.48914357290877;-2.6685981793492104;-1090.0720825543813;333.3333333333333;-1423.4054158877145
0.1440000000000001;-9979381163.0;-9979491664.0;18512.0;22.99716473796712;36.82054539355956;-6.087928330217526;-1656.1830813437296;250.0;-1906.1830813437296
0.1480000000000001;-9979316629.0;-9979368734.0;-12429.0;16.133577052895177;30.732617063342037;-8.48119232537492;-1715.8969212679854;250.0;-1965.8969212679854
0.1520000000000001;-9979277318.0;-9979279729.0;-36900.0;9.82790520661731;22.251424737967117;-8.33184768507194;-1576.4179615694668;250.0;-1826.4179615694668
0.1560000000000001;-9979258866.0;-9979224051.0;-53267.0;4.6129264399965;13.919577052895177;-7.287691846277867;-1303.7446916552021;166.66666666666666;-1470.4113583218689
0.16000000000000011;-9979254396.0;-9979197524.0;-61342.0;1.1174860678883873;6.6318852066173095;-5.699478766620809;-873.8600930270283;83.33333333333333;-957.1934263603616
0.16400000000000012;-9979256885.0;-9979193795.0;-60601.0;-0.622266821092488;0.9324064399965009;-3.450980372108113;-434.9382222452188;0.0;-434.9382222452188
0.16800000000000012;-9979261208.0;-9979203869.0;-53016.0;-1.0808433775174249;-2.5185739321116123;-1.2846528889808755;-114.64413910623422;0.0;-114.64413910623422
0.17200000000000013;-9979264695.0;-9979219081.0;-42127.0;-0.8716530754436219;-3.8032268210924878;0.19476344357506292;52.29757551845074;0.0;52.29757551845074
0.17600000000000013;-9979266597.0;-9979233514.0;-31181.0;-0.47542593229872504;-3.608463377517425;0.8659503020738031;99.05678578622422;0.0;99.05678578622422
0.18000000000000013;-9979267204.0;-9979244484.0;-22113.0;-0.1519000471111688;-2.7425130754436218;0.9403071431448968;80.88147129688906;0.0;80.88147129688906
0.18400000000000014;-9979267114.0;-9979251692.0;-15512.0;0.022622450016523913;-1.802205932298725;0.7195858851875563;43.63062428192318;0.0;43.63062428192318
0.18800000000000014;-9979266819.0;-9979256022.0;-11092.0;0.07374485226690795;-1.0826200471111687;0.43972249712769274;12.78060056259601;0.0;12.78060056259601
0.19200000000000014;-9979266586.0;-9979258593.0;-8226.0;0.05816817052322328;-0.6428975499834759;0.22308240225038395;-3.894170435921168;0.0;-3.894170435921168
0.19600000000000015;-9979266492.0;-9979260272.0;-6314.0;0.02349278274835719;-0.419815147733092;0.09914331825631528;-8.668846943716524;0.0;-8.668846943716524
0.20000000000000015;-9979266510.0;-9979261554.0;-4938.0;-0.004435568755801989;-0.3206718294767767;0.047884612225133905;-6.982087876039794;0.0;-6.982087876039794
0.20400000000000015;-9979266583.0;-9979262645.0;-3865.0;-0.01827019715886744;-0.2727872172516428;0.036451648495840844;-3.4586571007663625;83.33333333333333;-86.79199043409969
0.20800000000000016;-9979266666.0;-9979263590.0;-2993.0;-0.02076769356531131;-0.23633556875580194;0.03848537159693452;-0.6243741016109675;166.66666666666666;-167.2910407682776
0.21200000000000016;-9979266736.0;-9979264381.0;-2285.0;-0.017561083214669922;-0.19785019715886742;0.039982503593556123;0.8016525876603465;250.0;-249.19834741233964
0.21600000000000016;-9979266789.0;-9979265012.0;-1724.0;-0.013186531415920874;-0.1578676935653113;0.036866610350641385;1.0936379496872621;250.0;-248.90636205031274
0.22000000000000017;-9979266829.0;-9979265496.0;-1293.0;-0.009943380948537146;-0.12100108321466992;0.03023455179874905;0.8107876168459318;250.0;-249.18921238315406
0.22400000000000017;-9979266862.0;-9979265859.0;-970.0;-0.008323131844257842;-0.09076653141592086;0.022623150467383724;0.40506227606982614;333.3333333333333;-332.9282710572635
0.22800000000000017;-9979266894.0;-9979266131.0;-731.0;-0.007893838996688045;-0.06814338094853714;0.015960249104279303;0.10732321189244921;333.3333333333333;-333.2260101214409
0.23200000000000018;-9979266926.0;-9979266339.0;-555.0;-0.008018728878793385;-0.05218313184425784;0.010989292847569797;-0.03122247052633493;250.0;-250.03122247052633
0.23600000000000018;-9979266959.0;-9979266503.0;-423.0;-0.00822615213881646;-0.04119383899668804;0.00779511011789466;-0.051855815005768996;166.66666666666666;-166.71852248167244
0.24000000000000019;-9979266992.0;-9979266636.0;-323.0;-0.008294387210182849;-0.03339872887879338;0.005792576739976921;-0.01705876784159708;83.33333333333333;-83.35039210117493
0.2440000000000002;-9979267025.0;-9979266746.0;-246.0;-0.00818847863731943;-0.02760615213881646;0.004551764928633614;0.02647714321585455;83.33333333333333;-83.30685619011747
0.2480000000000002;-9979267056.0;-9979266838.0;-187.0;-0.007962123985458343;-0.023054387210182846;0.003645908572863416;0.05658866296527187;-83.33333333333333;83.3899219962986
0.25200000000000017;-9979267087.0;-9979266915.0;-141.0;-0.007683723082252866;-0.01940847863731943;0.002986354651861086;0.06960022580136932;-166.66666666666666;166.73626689246802
0.25600000000000017;-9979267117.0;-9979266980.0;-107.0;-0.007400938969320191;-0.016422123985458344;0.0023184009032054774;0.0706960282331687;-250.0;250.07069602823316
0.2600000000000002;-9979267145.0;-9979267036.0;-81.0;-0.007134548251203577;-0.014103723082252866;0.0018427841129326755;0.06659767952915349;-250.0;250.06659767952917
0.2640000000000002;-9979267173.0;-9979267085.0;-60.0;-0.006886445769472276;-0.01226093896932019;0.0015263907181166138;0.06202562043282518;-250.0;250.06202562043282
0.2680000000000002;-9979267199.0;-9979267127.0;-46.0;-0.006650209779956153;-0.010734548251203577;0.0010881024817313012;0.05905899737903078;-333.3333333333333;333.39239233071237
0.2720000000000002;-9979267225.0;-9979267165.0;-34.0;-0.0064185924487313376;-0.009646445769472276;0.0009562359895161233;0.05790433280620393;-333.3333333333333;333.39123766613955
0.2760000000000002;-9979267250.0;-9979267199.0;-26.0;-0.006186840080830047;-0.008690209779956153;0.0007116173312248161;0.05793809197532254;-333.3333333333333;333.3912714253086
0.2800000000000002;-9979267274.0;-9979267230.0;-20.0;-0.005953056103443589;-0.007978592448731336;0.0005917523679012894;0.05844599434661466;-166.66666666666666;166.72511266101327
0.2840000000000002;-9979267297.0;-9979267259.0;-15.0;-0.005717231571834843;-0.007386840080830047;0.0005337839773864586;0.05895613290218642;-83.33333333333333;83.39228946623551
0.2880000000000002;-9979267318.0;-9979267286.0;-11.0;-0.005480121594940425;-0.0068530561034435885;0.00047582453160874543;0.059277494223604475;0.0;0.059277494223604475
0.2920000000000002;-9979267339.0;-9979267311.0;-7.0;-0.005242492823293224;-0.006377231571834843;0.00047710997689441766;0.059407192911800286;0.0;0.059407192911800286
0.2960000000000002;-9979267359.0;-9979267334.0;-5.0;-0.005004821347739789;-0.005900121594940425;0.00035762877164720146;0.05941786888835881;0.0;0.05941786888835881
0.3000000000000002;-9979267379.0;-9979267356.0;-3.0;-0.004767279715144502;-0.005542492823293224;0.00035767147555343555;0.05938540814882172;0.0;0.05938540814882172
0.3040000000000002;-9979267397.0;-9979267376.0;-3.0;-0.004529854364131735;-0.005184821347739788;0.00023754163259528688;0.059356337753191726;0.0;0.059356337753191726
0.3080000000000002;-9979267414.0;-9979267395.0;-2.0;-0.004292463926447714;-0.0049472797151445015;0.0002974253510127662;0.05934760942100516;0.0;0.05934760942100516
0.3120000000000002;-9979267430.0;-9979267413.0;-1.0;-0.004055031361937272;-0.004649854364131735;0.0002973904376840208;0.05935814112761049;0.0;0.05935814112761049
0.3160000000000002;-9979267445.0;-9979267430.0;0.0;-0.0038175145437739874;-0.0043524639264477145;0.0002974325645104421;0.05937920454082127;0.0;0.05937920454082127
0.32000000000000023;-9979267460.0;-9979267446.0;1.0;-0.0035798999105822304;-0.004055031361937272;0.0002975168181632852;0.05940365829793925;0.0;0.05940365829793925
0.32400000000000023;-9979267473.0;-9979267461.0;1.0;-0.0033421966956390247;-0.003757514543773987;0.00023761463319175698;0.05942580373580143;0.0;0.05942580373580143
0.32800000000000024;-9979267485.0;-9979267475.0;2.0;-0.003104416152000743;-0.0035198999105822302;0.00029770321494320545;0.05944513590957037;0.0;0.05944513590957037
0.33200000000000024;-9979267497.0;-9979267487.0;2.0;-0.002866571841043016;-0.0032221966956390248;0.00023778054363828146;0.059461077739431774;0.0;0.059461077739431774
0.33600000000000024;-9979267507.0;-9979267498.0;1.0;-0.0026286692450240754;-0.0029844161520007433;0.00017784431095772737;0.059475649004735176;0.0;0.059475649004735176
0.34000000000000025;-9979267517.0;-9979267509.0;2.0;-0.002390715577441596;-0.002806571841043016;0.00029790259601894043;0.05948841689561982;0.0;0.05948841689561982
0.34400000000000025;-9979267526.0;-9979267519.0;2.0;-0.002152711415375392;-0.0025086692450240755;0.00023795366758247926;0.05950104051655105;0.0;0.05950104051655105
0.34800000000000025;-9979267533.0;-9979267528.0;2.0;-0.0019146599327644408;-0.0022707155774415962;0.0002380041620662042;0.0595128706527378;0.0;0.0595128706527378
0.35200000000000026;-9979267540.0;-9979267536.0;3.0;-0.0016765634379279977;-0.002032711415375392;0.00029805148261095133;0.059524123709110754;0.0;0.059524123709110754
0.35600000000000026;-9979267546.0;-9979267542.0;2.0;-0.001438426258964668;-0.0017346599327644407;0.00017809649483644307;0.05953429474083241;0.0;0.05953429474083241
0.36000000000000026;-9979267550.0;-9979267548.0;2.0;-0.0012002495500340795;-0.0015565634379279976;0.00023813717896332964;0.05954417723264715;0.0;0.05954417723264715
0.36400000000000027;-9979267554.0;-9979267553.0;3.0;-0.0009620376392348375;-0.001318426258964668;0.00029817670893058854;0.0595529776998105;0.0;0.0595529776998105
0.36800000000000027;-9979267557.0;-9979267557.0;3.0;-0.0007237945661256396;-0.0010202495500340795;0.0002382119107992419;0.059560768277299475;0.0;0.059560768277299475
0.3720000000000003;-9979267559.0;-9979267560.0;3.0;-0.000485523504645463;-0.0007820376392348376;0.0002382430731091979;0.059567765370044136;0.0;0.059567765370044136
0.3760000000000003;-9979267560.0;-9979267562.0;3.0;-0.00024722734019337774;-0.0005437945661256396;0.0002382710614801766;0.05957404111302132;0.0;0.05957404111302132
0.3800000000000003;-9979267560.0;-9979267563.0;3.0;-8.90982378817457e-06;-0.00030552350464546304;0.0002382961644520853;0.05957937910130079;0.0;0.05957937910130079
0.3840000000000003;-9979267559.0;-9979267563.0;3.0;0.00022942529355135543;-6.722734019337775e-05;0.00023831751640520317;0.0595837793348825;0.0;0.0595837793348825
0.3880000000000003;-9979267557.0;-9979267563.0;4.0;0.0004677757035059563;0.00017109017621182542;0.00029833511733952996;0.05958760248865022;0.0;0.05958760248865022
0.3920000000000003;-9979267555.0;-9979267562.0;5.0;0.0007061365008972089;0.0004694252935513554;0.0002983504099546008;0.05959019934781315;0.0;0.05959019934781315
0.3960000000000003;-9979267551.0;-9979267559.0;4.0;0.0009445053774058578;0.0007677757035059562;0.00017836079739125266;0.05959221912716221;0.0;0.05959221912716221
0.4000000000000003;-9979267546.0;-9979267556.0;5.0;0.0011828794476328325;0.0009461365008972089;0.0002983688765086489;0.05959351755674368;0.0;0.05959351755674368
0.4040000000000003;-9979267540.0;-9979267552.0;6.0;0.001421254094939621;0.0012445053774058578;0.00029837407022697453;0.05959366182669716;0.0;0.05959366182669716
0.4080000000000003;-9979267534.0;-9979267546.0;6.0;0.0016596255683074327;0.0015428794476328323;0.00023837464730678886;0.05959286834195289;0.0;0.05959286834195289
0.4120000000000003;-9979267526.0;-9979267539.0;5.0;0.0018979930021165465;0.0017812540949396212;0.00017837147336781161;0.059591858452278455;0.0;0.059591858452278455
0.4160000000000003;-9979267518.0;-9979267532.0;6.0;0.002136349759949101;0.001959625568307433;0.00029836743380911353;0.05958918945813866;0.0;0.05958918945813866
0.4200000000000003;-9979267508.0;-9979267523.0;5.0;0.00237469555326519;0.0022579930021165463;0.0001783567578325547;0.05958644832902227;0.0;0.05958644832902227
0.4240000000000003;-9979267498.0;-9979267514.0;6.0;0.0026130240341868593;0.002436349759949101;0.00029834579331608924;0.059582120230417285;0.0;0.059582120230417285
0.4280000000000003;-9979267486.0;-9979267504.0;6.0;0.0028513346256342944;0.0027346955532651903;0.00023832848092166913;0.05957764786185878;0.0;0.05957764786185878
0.43200000000000033;-9979267474.0;-9979267493.0;7.0;0.003089620979729542;0.0029730240341868594;0.00029831059144743485;0.05957158852381184;0.0;0.05957158852381184
0.43600000000000033;-9979267461.0;-9979267480.0;6.0;0.00332788223085288;0.0032713346256342942;0.00017828635409524764;0.05956531278083457;0.0;0.05956531278083457
0.44000000000000034;-9979267446.0;-9979267467.0;6.0;0.0035661143394456127;0.003449620979729542;0.0002382612511233383;0.059558027148183146;0.0;0.059558027148183146
0.44400000000000034;-9979267431.0;-9979267453.0;7.0;0.0038043129774091326;0.00368788223085288;0.00029823210859273273;0.05954965949087998;0.0;0.05954965949087998
0.44800000000000034;-9979267415.0;-9979267438.0;7.0;0.004042475259344371;0.003986114339445613;0.00023819863796351991;0.05954057048380957;0.0;0.05954057048380957
0.45200000000000035;-9979267398.0;-9979267422.0;7.0;0.0042805991654719785;0.004224312977409133;0.00023816228193523827;0.05953097653190191;0.0;0.05953097653190191
0.45600000000000035;-9979267380.0;-9979267405.0;7.0;0.004518679213533723;0.004462475259344371;0.00023812390612760765;0.05952001201543614;0.0;0.05952001201543614
0.46000000000000035;-9979267361.0;-9979267387.0;7.0;0.004756713383750255;0.004700599165471979;0.00023808004806174458;0.05950854255413292;0.0;0.05950854255413292
0.46400000000000036;-9979267341.0;-9979267368.0;7.0;0.004994696482403248;0.004938679213533723;0.00023803417021653166;0.05949577466324838;0.0;0.05949577466324838
0.46800000000000036;-9979267320.0;-9979267348.0;7.0;0.005232627355333075;0.005176713383750255;0.00023798309865299353;0.059482718232456606;0.0;0.059482718232456606
0.47200000000000036;-9979267298.0;-9979267327.0;7.0;0.005470501962981037;0.0054146964824032485;0.00023793087292982643;0.05946865191199056;0.0;0.05946865191199056
0.47600000000000037;-9979267275.0;-9979267305.0;7.0;0.005708316554328343;0.005652627355333075;0.00023787460764796223;0.05945364783682661;0.0;0.05945364783682661
0.48000000000000037;-9979267251.0;-9979267282.0;7.0;0.005946067089816297;0.005890501962981037;0.00023781459134730645;0.059437633871988395;0.0;0.059437633871988395
0.4840000000000004;-9979267227.0;-9979267258.0;7.0;0.006183751838205453;0.006128316554328344;0.00023775053548795357;0.059421187097289094;0.0;0.059421187097289094
0.4880000000000004;-9979267201.0;-9979267233.0;6.0;0.006421365894317396;0.006366067089816297;0.0001776847483891562;0.05940351402798573;0.0;0.05940351402798573
0.4920000000000004;-9979267174.0;-9979267207.0;6.0;0.006658906661292963;0.006543751838205453;0.00023761405611194292;0.05938519174389172;0.0;0.05938519174389172
0.4960000000000004;-9979267147.0;-9979267180.0;6.0;0.006896370388113361;0.006781365894317396;0.00023754076697556688;0.05936593170509938;0.0;0.05936593170509938
0.5000000000000003;-9979267118.0;-9979267152.0;5.0;0.0071337539008396135;0.007018906661292963;0.00017746372682039737;0.0593458781815632;0.0;0.0593458781815632
