Zeit[sec];Sollposition[°];Istposition[°];Positionsschleppfehler[°];Sollgeschwindigkeit[°/s];Istgeschwindigkeit[°/s];Geschwindigkeitsdifferenz[°/s];Sollbeschleunigung[°/s*s];Istbeschleunigung[°/s*s];Beschleunigungsdifferenz[°/s*s]
0.0;0.0;5.0;-5.0;-0.0;-0.00021499999999999997;0.0;0.0;0.0;0.0
0.004;0.0;5.0;-5.0;-0.0;-0.00021499999999999997;0.0;0.0;0.0;0.0
0.008;0.0;5.0;-5.0;-0.0;-0.00021499999999999997;0.0;0.0;0.0;0.0
0.012;0.0;5.0;-5.0;-0.0;-0.00021499999999999997;0.0;0.0;0.0;0.0
0.016;0.0;5.0;-5.0;-0.0;-0.00021499999999999997;0.0;0.0;0.0;0.0
0.02;0.0;5.0;-5.0;-0.0;-0.00021499999999999997;0.0;0.0;0.0;0.0
0.024;0.0;5.0;-5.0;-0.0;-0.00021499999999999997;0.0;0.0;0.0;0.0
0.028;0.0;5.0;-5.0;-0.0;-0.00021499999999999997;0.0;0.0;0.0;0.0
0.032;0.0;5.0;-5.0;-0.0;-0.00021499999999999997;0.0;0.0;0.0;0.0
0.036000000000000004;0.0;5.0;-5.0;-0.0;-0.00021499999999999997;0.0;0.0;0.0;0.0
0.04000000000000001;0.0;5.0;-5.0;-0.0;-0.00021499999999999997;0.0;0.0;0.0;0.0
0.04400000000000001;0.0;5.0;-5.0;-0.0;-0.00021499999999999997;0.0;0.0;0.0;0.0
0.048000000000000015;0.0;5.0;-5.0;-0.0;-0.00021499999999999997;0.0;0.0;0.0;0.0
0.05200000000000002;-109.0;5.0;-5.0;-0.027428897781449885;-0.00021499999999999997;0.0;-6.857224445362471;0.0;-6.857224445362471
0.05600000000000002;-1203.0;5.0;-114.0;-0.2733474226306633;-0.00021499999999999997;-0.03211589778144988;-61.47963121230335;0.0;-61.47963121230335
0.060000000000000026;-6577.0;-124.0;-1079.0;-1.3435580112474836;-0.03233089778144988;-0.2874135248492134;-267.5526471542051;0.0;-267.5526471542051
0.06400000000000003;-24341.0;-1402.0;-5175.0;-4.440917344161447;-0.31974442263066327;-1.2463385886168203;-774.3398332284908;0.0;-774.3398332284908
0.06800000000000003;-69404.0;-7666.0;-16675.0;-11.265869053069572;-1.5660830112474837;-3.5918593329139625;-1706.2379272270314;0.0;-1706.2379272270314
0.07200000000000004;-163654.0;-28297.0;-41107.0;-23.562407050638186;-5.157942344161446;-7.875527708908125;-3074.1344993921534;0.0;-3074.1344993921534
0.07600000000000004;-333883.0;-80430.0;-83224.0;-42.55745874643203;-13.033470053069571;-14.107568997568613;-4748.762923948462;0.0;-4748.762923948462
0.08000000000000004;-609123.0;-188994.0;-144889.0;-68.80993763170574;-27.141039050638184;-21.646646695793848;-6563.119721318426;-83.33333333333333;-6479.786387985093
0.08400000000000005;-1019283.0;-384144.0;-224979.0;-102.5398438730875;-48.78768574643203;-29.696348885273707;-8432.476560345442;-250.0;-8182.4765603454425
0.08800000000000005;-1594808.0;-698080.0;-321203.0;-143.88145640077465;-78.48403463170574;-37.867538241381766;-10335.403131921787;-416.6666666666667;-9918.73646525512
0.09200000000000005;-2365728.0;-1163486.0;-431322.0;-192.72987336398594;-116.3515728730875;-46.076729527687135;-12212.104240802822;-666.6666666666666;-11545.437574136156
0.09600000000000006;-3359728.0;-1813199.0;-552529.0;-248.50010675881362;-162.42830240077464;-54.060317963211304;-13942.558348706918;-916.6666666666666;-13025.89168204025
0.10000000000000006;-4600384.0;-2679153.0;-680575.0;-310.16380365652236;-216.48862036398594;-61.27621139482767;-15415.924224427186;-1250.0;-14165.924224427186
0.10400000000000006;-6106077.0;-3790212.0;-810172.0;-376.4232745754329;-277.7648317588136;-67.23636789770876;-16564.867729727637;-1666.6666666666667;-14898.201063060971
0.10800000000000007;-7889402.0;-5170216.0;-935861.0;-445.8312419657228;-345.0011996565224;-71.66409791891056;-17351.991847572477;-2166.6666666666665;-15185.325180905811
0.11200000000000007;-9957342.0;-6836877.0;-1052525.0;-516.9849765396475;-416.66529757543293;-74.4245193902899;-17788.43364348117;-2750.0;-15038.43364348117
0.11600000000000008;-12312516.0;-8801236.0;-1156106.0;-588.7935191112684;-491.08981696572283;-75.60771757392462;-17952.135642905232;-3250.0;-14702.135642905234
0.12000000000000008;-14954965.0;-11068026.0;-1244490.0;-660.6121688518733;-566.6975345396474;-75.60905457162096;-17954.662435151222;-3833.3333333333335;-14121.329101817888
0.12400000000000008;-17883716.0;-13637252.0;-1317713.0;-732.1876196984963;-642.3065891112684;-74.9672387406049;-17893.862711655744;-4416.666666666667;-13477.196044989076
0.12800000000000009;-21097756.0;-16506347.0;-1377369.0;-803.510038387069;-717.2738278518733;-74.14065884662296;-17830.60467214318;-5000.0;-12830.604672143181
0.1320000000000001;-24596431.0;-19672004.0;-1425752.0;-874.6687704873611;-791.4144866984963;-73.40288768857272;-17789.68302507303;-5583.333333333333;-12206.349691739699
0.1360000000000001;-28379467.0;-23131273.0;-1465158.0;-945.7589506966558;-864.817374387069;-72.85319010029218;-17772.545052323665;-6166.666666666667;-11605.878385656997
0.1400000000000001;-32446837.0;-26881955.0;-1497512.0;-1016.8423926027966;-937.6705644873612;-72.48140220929463;-17770.860476535207;-6833.333333333333;-10937.527143201873
0.1440000000000001;-36798616.0;-30922562.0;-1524275.0;-1087.9446760144176;-1010.1519666966558;-72.23425090614091;-17775.570852905246;-7333.333333333333;-10442.237519571914
0.1480000000000001;-41434887.0;-35252106.0;-1546510.0;-1159.067719400594;-1082.3862176027967;-72.05838841162085;-17780.760846544068;-7916.666666666667;-9864.094179877402
0.1520000000000001;-46355702.0;-39869884.0;-1565003.0;-1230.2037113558922;-1154.4446060144176;-71.91824238617642;-17783.99798882458;-8416.666666666666;-9367.331322157916
0.1560000000000001;-51561079.0;-44775335.0;-1580367.0;-1301.3442566901574;-1226.362848400594;-71.79664395529812;-17785.1363335663;-9000.0;-8785.136333566299
0.16000000000000011;-57051016.0;-49967972.0;-1593107.0;-1372.4841295954636;-1298.159492355892;-71.6883653342652;-17784.968226326557;-9583.333333333334;-8201.634892993221
0.16400000000000012;-62825502.0;-55447363.0;-1603653.0;-1443.6214670364548;-1369.8478576901573;-71.59335090530635;-17784.334360247783;-10166.666666666666;-7617.667693581117
0.16800000000000012;-68884528.0;-61213127.0;-1612375.0;-1514.7564999870983;-1441.4412085954636;-71.51238344099102;-17783.75823766089;-10750.0;-7033.758237660891
0.17200000000000013;-75228090.0;-67264941.0;-1619587.0;-1585.8902146643509;-1512.9535920364547;-71.44514895064367;-17783.42866931314;-11250.0;-6533.428669313139
0.17600000000000013;-81856184.0;-73602535.0;-1625555.0;-1657.0235173023386;-1584.3987409870983;-71.39033867725243;-17783.32565949694;-11833.333333333334;-5949.992326163605
0.18000000000000013;-88768812.0;-80225691.0;-1630493.0;-1728.156929783509;-1655.7890796643508;-71.34563663798781;-17783.353120292588;-12333.333333333334;-5450.019786959254
0.18400000000000014;-95965975.0;-87134229.0;-1634583.0;-1799.2906174139014;-1727.1347163023386;-71.30928248117038;-17783.4219075981;-12916.666666666666;-4866.75524093143
0.18800000000000014;-103447673.0;-94328004.0;-1637971.0;-1870.4245388971203;-1798.443998783509;-71.27937163039246;-17783.48037080474;-13416.666666666666;-4366.813704138072
0.19200000000000014;-111213908.0;-101806897.0;-1640776.0;-1941.5585866831805;-1869.7233704139014;-71.254536483219;-17783.511946515035;-14083.333333333334;-3700.1786131817003
0.19600000000000015;-119264679.0;-109570808.0;-1643100.0;-2012.6926687536734;-1940.9779068971204;-71.23397978605999;-17783.52051762323;-14583.333333333334;-3200.187184289897
0.20000000000000015;-127599986.0;-117619655.0;-1645024.0;-2083.8267351554427;-2012.2118866831804;-71.21681407049277;-17783.51660044234;-15166.666666666666;-2616.849933775674
0.20400000000000015;-136219830.0;-125953369.0;-1646617.0;-2154.9607721611437;-2083.428700753673;-71.20256540176979;-17783.509251425243;-15666.666666666666;-2116.8425847585777
0.20800000000000016;-145124210.0;-134571894.0;-1647936.0;-2226.0947858102277;-2154.631266155443;-71.19075400570091;-17783.503412270988;-16166.666666666666;-1616.8367456043225
0.21200000000000016;-154313125.0;-143475182.0;-1649028.0;-2297.228787643;-2225.822020161144;-71.18096964908364;-17783.500458193088;-16583.333333333332;-1200.1671248597568
0.21600000000000016;-163786577.0;-152663193.0;-1649932.0;-2368.362786876286;-2297.0029898102275;-71.17287383277244;-17783.499808321496;-17000.0;-783.4998083214941
0.22000000000000017;-173544539.0;-162135896.0;-1650681.0;-2439.490411837228;-2368.175863643;-71.16620623328618;-17781.906240235458;-17333.333333333332;-448.5729069021254
0.22400000000000017;-183586847.0;-171893264.0;-1651275.0;-2510.5768124749447;-2439.342069876286;-71.15316696094169;-17771.600159429225;-17583.333333333332;-188.26682609589443
0.22800000000000017;-193913000.0;-181935244.0;-1651603.0;-2581.538216786351;-2510.495236837228;-71.10050463771677;-17740.351077851526;-17750.0;9.648922148471684
0.23200000000000018;-204521705.0;-192261626.0;-1651374.0;-2652.176049008733;-2581.5957414749446;-70.9515573114063;-17659.458055595565;-17916.666666666668;257.2086110711034
0.23600000000000018;-215409471.0;-202871815.0;-1649890.0;-2721.941405003317;-2652.547298786351;-70.57402022238239;-17441.33899864596;-18000.0;558.6610013540394
0.24000000000000019;-226568313.0;-213764300.0;-1645171.0;-2789.710311416964;-2723.1213190087333;-69.56243899458377;-16942.226603411767;-18000.0;1057.7733965882317
0.2440000000000002;-237984055.0;-224935035.0;-1633278.0;-2853.9354060957667;-2792.683758003317;-67.25750741364709;-16056.273669700659;-18000.0;1943.7263302993415
0.2480000000000002;-249636263.0;-236374800.0;-1609255.0;-2913.051930803359;-2859.941265416964;-63.19210567880236;-14779.13117689809;-18000.0;3220.8688231019096
0.25200000000000017;-261499316.0;-248067333.0;-1568930.0;-2965.7631719304745;-2923.1333710957665;-57.382549707592716;-13177.810281778875;-17916.666666666668;4738.856384887793
0.25600000000000017;-273543940.0;-259989396.0;-1509920.0;-3011.155919131226;-2980.515920803359;-50.17381112711519;-11348.186800187817;-17833.333333333332;6485.146533145514
0.2600000000000002;-285738877.0;-272112154.0;-1431786.0;-3048.7339133110386;-3030.6897319304744;-42.03298520075123;-9394.498544953194;-17666.666666666668;8272.168121713474
0.2640000000000002;-298052338.0;-284403044.0;-1335833.0;-3078.3652769787445;-3072.7227171312256;-33.45201517981286;-7407.840916926489;-17500.0;10092.159083073511
0.2680000000000002;-310453248.0;-296827742.0;-1224596.0;-3100.2273551603066;-3106.1747323110385;-24.848172667705967;-5465.519545390521;-17166.666666666668;11701.147121276146
0.2720000000000002;-322912969.0;-309351833.0;-1101415.0;-3114.930057857208;-3131.0229049787445;-16.565295181562306;-3675.6756742253174;-16916.666666666668;13240.990992441351
0.2760000000000002;-335407641.0;-321942185.0;-970784.0;-3123.667690355846;-3147.5882001603068;-9.085569696901075;-2184.4081246595124;-16500.0;14315.591875340488
0.2800000000000002;-347919783.0;-334568880.0;-838761.0;-3128.0354202126628;-3156.673769857208;-3.060643498638001;-1091.9324642042056;-16166.666666666666;15074.73420246246
0.2840000000000002;-360438260.0;-347207817.0;-711966.0;-3129.619248701956;-3159.734413355846;1.084455143183277;-395.95712232335245;-15583.333333333334;15187.376211009981
0.2880000000000002;-372957137.0;-359842416.0;-595844.0;-3129.7189947759357;-3158.6499582126626;3.4094175107065894;-24.936518494882876;-15083.333333333334;15058.396814838452
0.2920000000000002;-385474135.0;-372463378.0;-493759.0;-3129.249359708366;-3155.240540701956;4.289908926020416;117.40876689248125;-14500.0;14617.40876689248
0.2960000000000002;-397989078.0;-385067180.0;-406955.0;-3128.735542243795;-3150.9506317759356;4.202207067569816;128.4543661427051;-14000.0;14128.454366142705
0.3000000000000002;-410502636.0;-397654173.0;-334905.0;-3128.3893097401874;-3146.7484247083657;3.6119674645706255;86.55812590188816;-13416.666666666666;13503.224792568555
0.3040000000000002;-423015558.0;-410226718.0;-275918.0;-3128.2303990626783;-3143.136457243795;2.882673503607748;39.72766937727101;-12750.0;12789.727669377271
0.3080000000000002;-435528350.0;-422787733.0;-227825.0;-3128.1978750887656;-3140.2537837401874;2.2269096775089565;8.130993478175697;-12166.666666666666;12174.797660144843
0.3120000000000002;-448041239.0;-435339840.0;-188510.0;-3128.222085249845;-3138.0268740626784;1.723068973912632;-6.052540269820383;-11583.333333333334;11577.280793063514
0.3160000000000002;-460554263.0;-447885055.0;-156184.0;-3128.255885850931;-3136.303805088766;1.365807838920773;-8.4501502715284;-11083.333333333334;11074.883183061806
0.32000000000000023;-473067377.0;-460424806.0;-129457.0;-3128.27843197258;-3134.937997249845;1.1154603989139105;-5.636530412289176;-10416.666666666666;10411.030136254376
0.32400000000000023;-485580525.0;-472960096.0;-107281.0;-3128.2867564521557;-3133.822536850931;0.931021878350748;-2.081119893887262;-9833.333333333334;9831.252213439446
0.32800000000000024;-498093668.0;-485491662.0;-88863.0;-3128.28572546855;-3132.8915149725804;0.7836495204246603;0.257745901421913;-9333.333333333334;9333.591079234757
0.33200000000000024;-510606794.0;-498020093.0;-73575.0;-3128.2811759729793;-3132.1078654521557;0.6584149836057804;1.1373738926749866;-8750.0;8751.137373892674
0.33600000000000024;-523119902.0;-510545890.0;-60904.0;-3128.276921808808;-3131.44945046855;0.5494024955705754;1.063541042867655;-8250.0;8251.063541042868
0.34000000000000025;-535633000.0;-523069490.0;-50412.0;-3128.27441722379;-3130.9000479729793;0.45541016417155333;0.6261462544898677;-7583.333333333333;7583.959479587823
0.34400000000000025;-548146095.0;-535591268.0;-41732.0;-3128.2735787093775;-3130.444637808808;0.37574458501785557;0.209628603101919;-7083.333333333333;7083.542961936435
0.34800000000000025;-560659191.0;-548111543.0;-34552.0;-3128.273729792853;-3130.06889322379;0.30957851441235107;-0.03777086885747849;-6500.0;6499.9622291311425
0.35200000000000026;-573172288.0;-560630580.0;-28611.0;-3128.2742167527763;-3129.7593147093776;0.25531191652453344;-0.12173998084108462;-6000.0;5999.878260019159
0.35600000000000026;-585685387.0;-573148596.0;-23692.0;-3128.274648359196;-3129.504002792853;0.21103004007682102;-0.10790160490614653;-5416.666666666667;5416.558765061761
0.36000000000000026;-598198488.0;-585665767.0;-19620.0;-3128.274890189964;-3129.292972752776;0.17466439358031494;-0.06045769202955853;-4833.333333333333;4833.2728756413035
0.36400000000000027;-610711588.0;-598182240.0;-16248.0;-3128.2749625399774;-3129.118308359196;0.14475416923187368;-0.018087503349306644;-4250.0;4249.981912496651
0.36800000000000027;-623224688.0;-610698134.0;-13454.0;-3128.274939463345;-3128.973554189964;0.12006964998681724;0.005769158065049851;-3750.0;3750.005769158065
0.3720000000000003;-635737788.0;-623213547.0;-11141.0;-3128.2748875788952;-3128.853484539977;0.09948207663182984;0.012971112482773606;-3166.6666666666665;3166.6796377791493
0.3760000000000003;-648250888.0;-635728563.0;-9225.0;-3128.2748445832153;-3128.7540024633454;0.08243988445019568;0.010748919976322213;-2583.3333333333335;2583.34408225331
0.3800000000000003;-660763988.0;-648243249.0;-7639.0;-3128.274821968807;-3128.671562578895;0.06824099567984376;0.005653602102029254;-2083.3333333333335;2083.3389869354355
0.3840000000000003;-673277088.0;-660757662.0;-6326.0;-3128.2748163263905;-3128.6033215832153;0.05648161440831245;0.001410604113516456;-1666.6666666666667;1666.6680772707803
0.3880000000000003;-685790188.0;-673271849.0;-5239.0;-3128.2748196562593;-3128.546839968807;0.04674664241656501;-0.0008324672080561868;-1250.0;1249.999167532792
0.3920000000000003;-698303288.0;-685785849.0;-4339.0;-3128.2748252620486;-3128.5000933263905;0.03869667013123035;-0.0014014473208590061;-750.0;749.9985985526791
0.3960000000000003;-710816388.0;-698299694.0;-3594.0;-3128.2748295855763;-3128.4613966562592;0.03202939421043993;-0.0010808819297380978;-416.6666666666667;416.66558578473695
0.4000000000000003;-723329488.0;-710813411.0;-2977.0;-3128.274831709765;-3128.429367262049;0.026526676472713007;-0.0005310471351549495;-166.66666666666666;166.6661356195315
0.4040000000000003;-735842588.0;-723327022.0;-2466.0;-3128.27483212821;-3128.402840585576;0.021970875811348378;-0.00010461133115313714;0.0;-0.00010461133115313714
0.4080000000000003;-748355688.0;-735840545.0;-2043.0;-3128.274831703764;-3128.3808697097647;0.018188581554568373;0.00010611154266371159;166.66666666666666;-166.666560555124
0.4120000000000003;-760868788.0;-748353995.0;-1693.0;-3128.2748311093974;-3128.36268112821;0.015050424446144461;0.0001485916527599329;250.0;-249.99985140834724
0.4160000000000003;-773381887.0;-760867385.0;-1403.0;-3128.274830679603;-3128.347630703764;0.012470594366732257;0.00010744861356215551;166.66666666666666;-166.6665592180531
0.4200000000000003;-785894987.0;-773380725.0;-1162.0;-3128.274830483066;-3128.3351601093973;0.010363429794324475;4.913420070806751e-05;166.66666666666666;-166.66661753246595
0.4240000000000003;-798408087.0;-785894024.0;-963.0;-3128.2748304562024;-3128.324796679603;0.00855719653691267;6.715936251566745e-06;166.66666666666666;-166.6666599507304
0.4280000000000003;-810921187.0;-798407288.0;-799.0;-3128.274830507505;-3128.316239483066;0.0070520268636755645;-1.2825694284401834e-05;250.0;-250.00001282569428
0.43200000000000033;-823434287.0;-810920524.0;-663.0;-3128.2748305697833;-3128.3091874562024;0.005847948697009997;-1.5569526112813037e-05;166.66666666666666;-166.66668223619277
0.43600000000000033;-835947387.0;-823433737.0;-550.0;-3128.274830612132;-3128.3033395075054;0.004858937722019618;-1.0587200449663214e-05;83.33333333333333;-83.33334392053378
0.44000000000000034;-848460487.0;-835946930.0;-457.0;-3128.274830630041;-3128.2984805697834;0.0039989576512198255;-4.4772150431526825e-06;83.33333333333333;-83.33333781054837
0.44400000000000034;-860973587.0;-848460107.0;-380.0;-3128.2748306311296;-3128.294481612132;0.003310982091079495;-2.721662895055488e-07;83.33333333333333;-83.33333360549962
0.44800000000000034;-873486687.0;-860973271.0;-316.0;-3128.2748306251597;-3128.291170630041;0.0027519989116626675;1.4924808056093752e-06;83.33333333333333;-83.33333184085252
0.45200000000000035;-885999787.0;-873486424.0;-263.0;-3128.2748306187545;-3128.2884186311294;0.0022790059697399556;1.6012791093089618e-06;0.0;1.6012791093089618e-06
0.45600000000000035;-898512887.0;-885999568.0;-219.0;-3128.2748306146195;-3128.2861396251596;0.00189200640488707;1.0337544154026546e-06;83.33333333333333;-83.33333229957891
0.46000000000000035;-911025987.0;-898512704.0;-183.0;-3128.2748306129715;-3128.2842476187548;0.0015480041352020635;4.120010999031365e-07;83.33333333333333;-83.33333292133223
0.46400000000000036;-923539086.0;-911025834.0;-153.0;-3128.2748306130025;-3128.2826996146196;0.0012900016481580678;-7.73070496506989e-09;83.33333333333333;-83.33333334106403
0.46800000000000036;-936052186.0;-923538959.0;-127.0;-3128.2748306136864;-3128.2814096129714;0.001117999968755612;-1.709850039333105e-07;0.0;-1.709850039333105e-07
0.47200000000000036;-948565286.0;-936052080.0;-106.0;-3128.274830614371;-3128.2802916130026;0.000902999316167552;-1.7109869077103212e-07;0.0;-1.7109869077103212e-07
0.47600000000000037;-961078386.0;-948565197.0;-89.0;-3128.274830614775;-3128.2793886136865;0.0007309993156923156;-1.0106759873451665e-07;0.0;-1.0106759873451665e-07
0.48000000000000037;-973591486.0;-961078311.0;-75.0;-3128.2748306149615;-3128.278657614371;0.0006019995958013169;-4.661160346586257e-08;0.0;-4.661160346586257e-08
0.4840000000000004;-986104586.0;-973591423.0;-63.0;-3128.274830614837;-3128.278055614775;0.0005159998136150534;3.115019353572279e-08;0.0;3.115019353572279e-08
0.4880000000000004;-998617686.0;-986104533.0;-53.0;-3128.274830614806;-3128.2775396149614;0.0004300001246519969;7.73070496506989e-09;0.0;7.73070496506989e-09
0.4920000000000004;-1011130786.0;-998617641.0;-45.0;-3128.274830614837;-3128.2771096148367;0.00034400003096379805;-7.73070496506989e-09;0.0;-7.73070496506989e-09
0.4960000000000004;-1023643886.0;-1011130748.0;-38.0;-3128.2748306147128;-3128.2767656148058;0.0003009999686582887;3.1036506698001176e-08;0.0;3.1036506698001176e-08
0.5000000000000003;-1036156986.0;-1023643853.0;-33.0;-3128.2748306146814;-3128.276464614837;0.00021500012417163816;7.844391802791506e-09;0.0;7.844391802791506e-09
