Zeit[sec];Sollposition[°];Istposition[°];Positionsschleppfehler[°];Sollgeschwindigkeit[°/s];Istgeschwindigkeit[°/s];Geschwindigkeitsdifferenz[°/s];Sollbeschleunigung[°/s*s];Istbeschleunigung[°/s*s];Beschleunigungsdifferenz[°/s*s]
0.0;0.0;5.0;-5.0;-0.0;-0.00021499999999999997;0.0;0.0;0.0;0.0
0.004;0.0;5.0;-5.0;-0.0;-0.00021499999999999997;0.0;0.0;0.0;0.0
0.008;0.0;5.0;-5.0;-0.0;-0.00021499999999999997;0.0;0.0;0.0;0.0
0.012;0.0;5.0;-5.0;-0.0;-0.00021499999999999997;0.0;0.0;0.0;0.0
0.016;0.0;5.0;-5.0;-0.0;-0.00021499999999999997;0.0;0.0;0.0;0.0
0.02;0.0;5.0;-5.0;-0.0;-0.00021499999999999997;0.0;0.0;0.0;0.0
0.024;0.0;5.0;-5.0;-0.0;-0.00021499999999999997;0.0;0.0;0.0;0.0
0.028;0.0;5.0;-5.0;-0.0;-0.00021499999999999997;0.0;0.0;0.0;0.0
0.032;0.0;5.0;-5.0;-0.0;-0.00021499999999999997;0.0;0.0;0.0;0.0
0.036000000000000004;0.0;5.0;-5.0;-0.0;-0.00021499999999999997;0.0;0.0;0.0;0.0
0.04000000000000001;0.0;5.0;-5.0;-0.0;-0.00021499999999999997;0.0;0.0;0.0;0.0
0.04400000000000001;0.0;5.0;-5.0;-0.0;-0.00021499999999999997;0.0;0.0;0.0;0.0
0.048000000000000015;0.0;5.0;-5.0;-0.0;-0.00021499999999999997;0.0;0.0;0.0;0.0
0.05200000000000002;-2902.0;5.0;-5.0;-0.7256539924111374;-0.00021499999999999997;0.0;-181.41349810278433;0.0;-181.41349810278433
0.05600000000000002;-31829.0;5.0;-2907.0;-7.23163030930764;-0.00021499999999999997;-0.8504399924111373;-1626.4940792241257;0.0;-1626.4940792241257
0.060000000000000026;-174008.0;-3397.0;-28432.0;-35.5449293903843;-0.8506549924111373;-7.603551316896503;-7078.324770269164;0.0;-7078.324770269164
0.06400000000000003;-641073.0;-37213.0;-136795.0;-116.76605991126986;-8.45420630930764;-32.97290808107665;-20305.28263022139;0.0;-20305.28263022139
0.06800000000000003;-1808813.0;-202921.0;-438152.0;-291.9351553650865;-41.4271143903843;-94.17948152088556;-43792.27386345415;-83.33333333333333;-43708.94053012082
0.07200000000000004;-4199633.0;-745347.0;-1063466.0;-597.7048541082991;-135.60659591126986;-202.0575974538166;-76442.42468580314;-416.6666666666667;-76025.75801913648
0.07600000000000004;-8406919.0;-2096003.0;-2103630.0;-1051.8215161433584;-337.6641933650865;-350.4967507432126;-113529.16550876484;-1333.3333333333333;-112195.8321754315
0.08000000000000004;-15004523.0;-4848646.0;-3558273.0;-1649.401006102835;-688.1609441082991;-516.6663110350593;-149394.87248986916;-3000.0;-146394.87248986916
0.08400000000000005;-24488966.0;-9667955.0;-5336568.0;-2371.110559604116;-1204.8272551433583;-674.0461749594767;-180427.38837532027;-5833.333333333333;-174594.05504198695
0.08800000000000005;-37257808.0;-17183448.0;-7305518.0;-3192.210322623444;-1878.873430102835;-806.3744035012812;-205274.94075483197;-9833.333333333334;-195441.60742149863
0.09200000000000005;-53585142.0;-27924439.0;-9333369.0;-4081.833364940308;-2685.2478336041163;-908.2973560193277;-222405.760579216;-15083.333333333334;-207322.42724588266
0.09600000000000006;-73576428.0;-42298619.0;-11286523.0;-4997.821139381802;-3593.545189623444;-973.6086643168642;-228996.94361037348;-21250.0;-207746.94361037348
0.10000000000000006;-97136944.0;-60567234.0;-13009194.0;-5890.128873603936;-4567.153853940308;-990.0626274414935;-223076.93355553353;-28250.0;-194826.93355553353
0.10400000000000006;-123980420.0;-82796099.0;-14340845.0;-6710.868507423407;-5557.216481381802;-949.5687272221339;-205184.9084548678;-35666.666666666664;-169518.24178820115
0.10800000000000007;-153664488.0;-108823239.0;-15157181.0;-7421.016602594394;-6506.785208603936;-855.8420818194718;-177537.0237927466;-43333.333333333336;-134203.69045941325
0.11200000000000007;-185640468.0;-138273748.0;-15390740.0;-7993.9948497624855;-7362.627290423407;-720.1911321709858;-143244.56179202299;-50583.333333333336;-92661.22845868964
0.11600000000000008;-219321112.0;-170605021.0;-15035447.0;-8420.16052193451;-8082.818422594393;-557.7006481680928;-106541.41804300594;-57166.666666666664;-49374.75137633927
0.12000000000000008;-254156105.0;-205167097.0;-14154015.0;-8708.747887885804;-8640.519070762486;-388.2640961720226;-72146.84148782362;-62666.666666666664;-9480.174821156957
0.12400000000000008;-289686820.0;-241282229.0;-12873876.0;-8882.678192434028;-9028.783166934509;-233.54138895129472;-43482.57613705618;-67083.33333333333;23600.757196277144
0.12800000000000009;-325569592.0;-278331527.0;-11355293.0;-8970.692741728006;-9262.324555885803;-108.63123554822414;-22003.63732349433;-70166.66666666667;48163.02934317234
0.1320000000000001;-361578572.0;-315815350.0;-9754242.0;-9002.244524474927;-9370.955791434028;-19.169356293978126;-7887.945686730291;-72083.33333333333;64195.387646603034
0.1360000000000001;-397592466.0;-353375850.0;-8202722.0;-9003.473088819816;-9390.125147728006;35.163577253078984;-307.14108622214553;-72916.66666666667;72609.52558044452
0.1400000000000001;-433566170.0;-390795696.0;-6796770.0;-8993.425478492005;-9354.961570474927;59.22737165511171;2511.902581952654;-73250.0;75761.90258195266
0.1440000000000001;-469497720.0;-427978632.0;-5587538.0;-8982.88713300102;-9295.734198819815;62.044586327810975;2634.586372746071;-73000.0;75634.58637274607
0.1480000000000001;-505401785.0;-464913390.0;-4584330.0;-8976.01583599609;-9233.689612492004;53.676289490982526;1717.8242512327415;-72666.66666666667;74384.49091789941
0.1520000000000001;-541293897.0;-501633443.0;-3768342.0;-8973.02741147345;-9180.013323001021;41.95878100493246;747.1061306600859;-72166.66666666667;72913.77279732676
0.1560000000000001;-577184153.0;-538185661.0;-3108236.0;-8972.563579060938;-9138.054541996089;31.372982522640086;115.9581031279231;-71750.0;71865.95810312792
0.16000000000000011;-613076828.0;-574612387.0;-2571766.0;-8973.16854897253;-9106.681559473449;23.532042412511146;-151.24247789799483;-71416.66666666667;71265.42418876868
0.16400000000000012;-648972413.0;-610944985.0;-2131843.0;-8973.895812117766;-9083.149517060938;18.3117190884077;-181.8157863090164;-71166.66666666667;70984.85088035766
0.16800000000000012;-684869823.0;-647204336.0;-1768077.0;-8974.35200743049;-9064.83779797253;14.914674854764598;-114.04882818123951;-71000.0;70885.95117181876
0.17200000000000013;-720767841.0;-683404028.0;-1465795.0;-8974.504109528261;-9049.923123117765;12.541930687275453;-38.025524442673486;-70833.33333333333;70795.30780889065
0.17600000000000013;-756665712.0;-719553552.0;-1214289.0;-8974.467154994058;-9037.38119243049;10.662655902227925;9.238633550921804;-70666.66666666667;70675.9053002176
0.18000000000000013;-792563175.0;-755660426.0;-1005286.0;-8974.365514700814;-9026.718536528262;9.024083534204692;25.4100733109226;-70583.33333333333;70608.74340664425
0.18400000000000014;-828460282.0;-791731203.0;-831972.0;-8974.276217497314;-9017.694452994057;7.554142293243785;22.324300874970504;-70500.0;70522.32430087497
0.18800000000000014;-864357188.0;-827771764.0;-688518.0;-8974.226113811605;-9010.140310700814;6.257819203499821;12.525921427368303;-70416.66666666667;70429.19258809404
0.19200000000000014;-900254034.0;-863787293.0;-569895.0;-8974.210999482357;-9003.882491497314;5.15089268570955;3.77858231195205;-70416.66666666667;70420.44524897862
0.19600000000000015;-936150898.0;-899782219.0;-471815.0;-8974.215686561949;-8998.731598811604;4.23255432924816;-1.1717698980646674;-70166.66666666667;70165.4948967686
0.20000000000000015;-972047806.0;-935760215.0;-390683.0;-8974.22643922828;-8994.499044482356;3.483988920406773;-2.688166582629492;-69833.33333333333;69830.6451667507
0.20400000000000015;-1007944749.0;-971724275.0;-323531.0;-8974.235426291933;-8991.01505556195;2.876783333669664;-2.2467659132416884;-68916.66666666667;68914.41990075343
0.20800000000000016;-1043841712.0;-1007676828.0;-267921.0;-8974.240215303129;-8988.13827222828;2.3822429363463016;-1.1972527991019888;-67250.0;67248.8027472009
0.21200000000000016;-1079738679.0;-1043619852.0;-221860.0;-8974.241472156875;-8985.756029291933;1.9758339888048795;-0.3142134364679805;-64416.666666666664;64416.352453230196
0.21600000000000016;-1115635644.0;-1079554972.0;-183707.0;-8974.24083758931;-8983.780195303128;1.6393221462531073;0.1586418911756482;-60333.333333333336;60333.49197522451
0.22000000000000017;-1151532605.0;-1115483535.0;-152109.0;-8974.239701091805;-8982.140873156875;1.3593485675646662;0.2841243763214152;-55166.666666666664;55166.95079104298
0.22400000000000017;-1187429562.0;-1151406661.0;-125944.0;-8974.238810451447;-8980.78152458931;1.1262314975065237;0.22266008954829886;-48916.666666666664;48916.88932675621
0.22800000000000017;-1223326517.0;-1187325282.0;-104280.0;-8974.238366524965;-8979.655293091804;0.9324426403582038;0.110981620309758;-41916.666666666664;41916.777648286974
0.23200000000000018;-1259223472.0;-1223240173.0;-86344.0;-8974.238274327448;-8978.722850451446;0.7716919264803437;0.023049379251460778;-34416.666666666664;34416.68971604592
0.23600000000000018;-1295120427.0;-1259151977.0;-71495.0;-8974.238358400016;-8977.951158524966;0.6385991975166689;-0.021018141978856875;-26833.333333333332;26833.312315191353
0.24000000000000019;-1331017383.0;-1295061227.0;-59200.0;-8974.238479900254;-8977.312559327449;0.5286009274332173;-0.03037505939573748;-19583.333333333332;19583.302958273936
0.2440000000000002;-1366914339.0;-1330968362.0;-49021.0;-8974.238568866747;-8976.783958400016;0.437575499761806;-0.022241623355512274;-13000.0;12999.977758376644
0.2480000000000002;-1402811295.0;-1366873747.0;-40592.0;-8974.238610128823;-8976.346382900254;0.36235803350609785;-0.01031551892083371;-7416.666666666667;7416.656351147746
0.25200000000000017;-1438708251.0;-1402777683.0;-33612.0;-8974.238616273542;-8975.984024866748;0.30009873792550934;-0.00153617975229281;-3083.3333333333335;3083.331797153581
0.25600000000000017;-1474605207.0;-1438680418.0;-27833.0;-8974.238606030996;-8975.683926128822;0.24849085527966963;0.00256063640335924;0.0;0.00256063640335924
0.2600000000000002;-1510502163.0;-1474582159.0;-23048.0;-8974.238593262358;-8975.435435273543;0.20576524254647666;0.0031921595109452028;1916.6666666666667;-1916.6634745071558
0.2640000000000002;-1546399119.0;-1510483077.0;-19086.0;-8974.238584474577;-8975.229670030996;0.17037876863832935;0.002196945388277527;2916.6666666666665;-2916.6644697212782
0.2680000000000002;-1582296075.0;-1546383314.0;-15805.0;-8974.23858070478;-8975.059291262358;0.1410917877819884;0.0009424493327969685;3083.3333333333335;-3083.3323908840007
0.2720000000000002;-1618193031.0;-1582282986.0;-13089.0;-8974.238580405421;-8974.918199474576;0.11679176979669137;7.483959052478895e-05;2833.3333333333335;-2833.333258493743
0.2760000000000002;-1654089987.0;-1618182191.0;-10840.0;-8974.23858160541;-8974.80140770478;0.09670729935896816;-0.00029999728212715127;2500.0;-2500.000299997282
0.2800000000000002;-1689986943.0;-1654081009.0;-8978.0;-8974.238582933376;-8974.70470040542;0.08006480000949523;-0.00033199148674611934;2083.3333333333335;-2083.3336653248202
0.2840000000000002;-1725883899.0;-1689979507.0;-7436.0;-8974.238583793338;-8974.62463560541;0.0663046720346756;-0.00021499045033124276;1666.6666666666667;-1666.666881657117
0.2880000000000002;-1761780855.0;-1725877740.0;-6159.0;-8974.238584131379;-8974.558330933376;0.05491014003746386;-8.451024768874049e-05;1250.0;-1250.0000845102477
0.2920000000000002;-1797677811.0;-1761775753.0;-5102.0;-8974.238584129323;-8974.503420793339;0.04545066195896652;5.138645065017045e-07;1083.3333333333333;-1083.3333328194688
0.2960000000000002;-1833574767.0;-1797673584.0;-4227.0;-8974.23858399258;-8974.45797013138;0.03762500205630204;3.4186086850240827e-05;833.3333333333334;-833.3332991472465
0.3000000000000002;-1869471723.0;-1833571265.0;-3502.0;-8974.23858385546;-8974.420345129323;0.03117513674442307;3.427976480452344e-05;750.0;-749.9999657202352
0.3040000000000002;-1905368680.0;-1869468821.0;-2902.0;-8974.238583771947;-8974.389169992579;0.025800137118494604;2.087836037389934e-05;583.3333333333334;-583.333312454973
0.3080000000000002;-1941265636.0;-1905366274.0;-2406.0;-8974.23858374247;-8974.36336985546;0.021328083514163154;7.369180821115151e-06;500.0;-499.9999926308192
0.3120000000000002;-1977162592.0;-1941263642.0;-1994.0;-8974.238583745764;-8974.342041771946;0.017716029477014672;-8.235474524553865e-07;416.6666666666667;-416.66666749021414
0.3160000000000002;-2013059548.0;-1977160939.0;-1653.0;-8974.238583761125;-8974.32432574247;0.014662996705737896;-3.8403413782361895e-06;333.3333333333333;-333.3333371736747
0.32000000000000023;-2048956504.0;-2013058177.0;-1371.0;-8974.238583775055;-8974.309662745763;0.012125984638259979;-3.4824552130885422e-06;333.3333333333333;-333.3333368157885
0.32400000000000023;-2084853460.0;-2048955367.0;-1137.0;-8974.2385837832;-8974.297536761125;0.01006198606955877;-2.0363586372695863e-06;250.0;-250.00000203635864
0.32800000000000024;-2120750416.0;-2084852516.0;-944.0;-8974.238583785627;-8974.287474775056;0.00829899185555405;-6.066329660825431e-07;166.66666666666666;-166.66666727329962
0.33200000000000024;-2156647372.0;-2120749632.0;-784.0;-8974.238583784881;-8974.2791757832;0.00687999757246871;1.864464138634503e-07;166.66666666666666;-166.66666648022024
0.33600000000000024;-2192544328.0;-2156646721.0;-651.0;-8974.238583783324;-8974.272295785628;0.005719000746466918;3.892637323588133e-07;83.33333333333333;-83.3333329440696
0.34000000000000025;-2228441284.0;-2192543787.0;-541.0;-8974.23858378208;-8974.266576784881;0.00473000155761838;3.1104718800634146e-07;166.66666666666666;-166.66666635561947
0.34400000000000025;-2264338240.0;-2228440834.0;-450.0;-8974.238583781273;-8974.261846783324;0.00391300124283589;2.0190782379359007e-07;83.33333333333333;-83.3333331314255
0.34800000000000025;-2300235196.0;-2264337865.0;-375.0;-8974.238583780714;-8974.25793378208;0.0032250008080154657;1.3960743672214448e-07;83.33333333333333;-83.33333319372589
0.35200000000000026;-2336132152.0;-2300234883.0;-313.0;-8974.238583781085;-8974.254708781273;0.002666000558747328;-9.276845958083868e-08;0.0;-9.276845958083868e-08
0.35600000000000026;-2372029108.0;-2336131891.0;-261.0;-8974.238583780963;-8974.252042780714;0.00223599962919252;3.0468072509393096e-08;0.0;3.0468072509393096e-08
0.36000000000000026;-2407926064.0;-2372028890.0;-218.0;-8974.238583781334;-8974.249806781085;0.0018490001220925478;-9.276845958083868e-08;83.33333333333333;-83.33333342610179
0.36400000000000027;-2443823020.0;-2407925881.0;-183.0;-8974.238583781584;-8974.247957780963;0.0015049996291054413;-6.230038707144558e-08;83.33333333333333;-83.33333339563372
0.36800000000000027;-2479719976.0;-2443822866.0;-154.0;-8974.238583781584;-8974.246452781334;0.0012469997491280083;0.0;83.33333333333333;-83.33333333333333
0.3720000000000003;-2515616932.0;-2479719846.0;-130.0;-8974.238583781584;-8974.245205781584;0.0010320000001229346;0.0;0.0;0.0
0.3760000000000003;-2551513888.0;-2515616822.0;-110.0;-8974.23858378121;-8974.244173781584;0.0008600000001024455;9.322320693172514e-08;0.0;9.322320693172514e-08
0.3800000000000003;-2587410844.0;-2551513795.0;-93.0;-8974.238583781334;-8974.243313781584;0.0007310003729799064;-3.092281986027956e-08;0.0;-3.092281986027956e-08
0.3840000000000003;-2623307800.0;-2587410765.0;-79.0;-8974.23858378146;-8974.242582781211;0.0006019998763804324;-3.1377567211166024e-08;0.0;-3.1377567211166024e-08
0.3880000000000003;-2659204756.0;-2623307732.0;-68.0;-8974.23858378121;-8974.241980781335;0.00047299987454607617;6.230038707144558e-08;0.0;6.230038707144558e-08
0.3920000000000003;-2695101712.0;-2659204698.0;-58.0;-8974.23858378146;-8974.24150778146;0.00043000024925277103;-6.230038707144558e-08;0.0;-6.230038707144558e-08
0.3960000000000003;-2730998668.0;-2695101662.0;-50.0;-8974.238583781584;-8974.241077781211;0.0003439997508394299;-3.092281986027956e-08;0.0;-3.092281986027956e-08
0.4000000000000003;-2766895624.0;-2730998624.0;-44.0;-8974.238583781085;-8974.24073378146;0.0002579998763394542;1.2460077414289117e-07;0.0;1.2460077414289117e-07
0.4040000000000003;-2802792581.0;-2766895585.0;-39.0;-8974.23858378146;-8974.240475781584;0.00021500049842870794;-9.367795428261161e-08;0.0;-9.367795428261161e-08
0.4080000000000003;-2838689537.0;-2802792546.0;-35.0;-8974.23858378146;-8974.240260781085;0.00017199962530867197;0.0;0.0;0.0
0.4120000000000003;-2874586229.0;-2838689506.0;-31.0;-8974.172715270757;-8974.24008878146;0.0001720000000204891;16.467127675696247;0.0;16.467127675696247
0.4160000000000003;-2910480955.0;-2874586465.0;236.0;-8973.680962519848;-8974.23991678146;0.07734951070233365;122.9381877274136;0.0;122.9381877274136
0.4200000000000003;-2946368548.0;-2910483115.0;2160.0;-8971.897959854941;-8974.162567270758;0.5744847509104147;445.7506662265587;0.0;445.7506662265587
0.4240000000000003;-2982238114.0;-2946377467.0;8919.0;-8967.391047431518;-8973.588082519847;2.0736396649062954;1126.7281058558183;0.0;1126.7281058558183
0.4280000000000003;-3018069601.0;-2982263524.0;25410.0;-8957.871261574299;-8971.514442854941;5.216025423422252;2379.946464304794;0.0;2379.946464304794
0.43200000000000033;-3053829024.0;-3018128717.0;59116.0;-8939.855350938053;-8966.298417431519;10.969143857220843;4503.9776590615475;83.33333333333333;4420.644325728214
0.43600000000000033;-3089465589.0;-3053950034.0;121010.0;-8909.140880103914;-8955.329273574298;20.677352636244905;7678.617708534603;83.33333333333333;7595.2843752012695
0.44000000000000034;-3124913249.0;-3089688641.0;223052.0;-8861.914571587895;-8934.651920938053;35.10227683413905;11806.577129004836;166.66666666666666;11639.91046233817
0.44400000000000034;-3160095287.0;-3125286839.0;373590.0;-8795.509155111673;-8899.549644103914;53.69944251601919;16601.354119055486;333.3333333333333;16268.020785722152
0.44800000000000034;-3194926029.0;-3160670239.0;574952.0;-8707.684947713333;-8845.850201587895;75.06398247622201;21956.051849585037;666.6666666666666;21289.38518291837
0.45200000000000035;-3229300104.0;-3195753383.0;827354.0;-8593.518368149007;-8770.786219111673;98.67749339833972;28541.644891081432;1083.3333333333333;27458.3115577481
0.45600000000000035;-3263069663.0;-3230441817.0;1141713.0;-8442.389434591963;-8672.108725713333;127.68401656432616;37782.23338926091;1666.6666666666667;36115.566722594245
0.46000000000000035;-3296024824.0;-3264619515.0;1549852.0;-8238.78981203794;-8544.424709149007;168.67891055704422;50899.90563850597;2416.6666666666665;48483.2389718393
0.46400000000000036;-3327885590.0;-3298122498.0;2097674.0;-7965.191169547418;-8375.745798591963;227.15596855402327;68399.66062263034;3500.0;64899.660622630334
0.46800000000000036;-3358301358.0;-3330716857.0;2831267.0;-7603.941586531747;-8148.5898300379395;305.143141490521;90312.39575391782;4833.333333333333;85479.0624205845
0.47200000000000036;-3386862596.0;-3362090643.0;3789285.0;-7140.309197767395;-7843.4466885474185;402.4443570156718;115908.09719108802;6666.666666666667;109241.43052442135
0.47600000000000037;-3413136908.0;-3391854652.0;4992056.0;-6568.577712282207;-7441.002331531747;515.3515417643521;142932.87137129687;9083.333333333334;133849.53803796353
0.48000000000000037;-3436722623.0;-3419557255.0;6420347.0;-5896.428477062027;-6925.650789767395;633.1479984851876;168037.3088050451;12250.0;155787.3088050451
0.4840000000000004;-3457296496.0;-3444727266.0;8004643.0;-5143.467867000694;-6292.502791282207;740.2739632201801;188240.1525153332;16333.333333333334;171906.81918199986
0.4880000000000004;-3474651820.0;-3466936181.0;9639685.0;-4338.830793818412;-5552.228828062027;823.2674160613324;201159.26829557066;21250.0;179909.26829557066
0.4920000000000004;-3488732482.0;-3485852026.0;11200206.0;-3520.1654312659716;-4728.9614120006945;871.7394761822829;204666.34063811;26916.666666666668;177749.67397144332
0.4960000000000004;-3499645765.0;-3501280913.0;12548431.0;-2728.320461244905;-3857.2219358184116;876.6390375524397;197961.24250526668;33250.0;164711.24250526668
0.5000000000000003;-3507644075.0;-3513203244.0;13557479.0;-1999.5775543501775;-2980.582898265972;835.2340340210671;182185.72672368184;39916.666666666664;142269.0600570152
0.5040000000000003;-3513098285.0;-3521784639.0;14140564.0;-1363.5523124836081;-2145.3488642449047;753.8155618947271;159006.31046664235;46750.0;112256.31046664233
