Zeit[sec];Sollposition[°];Istposition[°];Positionsschleppfehler[°];Sollgeschwindigkeit[°/s];Istgeschwindigkeit[°/s];Geschwindigkeitsdifferenz[°/s];Sollbeschleunigung[°/s*s];Istbeschleunigung[°/s*s];Beschleunigungsdifferenz[°/s*s]
0.0;9817499999.0;9817500004.0;-5.0;-5.961154328593359e-09;-0.00036001561254705105;6.000340637390207e-05;1.5612547051077842e-06;0.0;1.5612547051077842e-06
0.004;9817499999.0;9817500003.0;-4.0;-1.4193224591888948e-09;-0.000300012206173149;6.00062450188204e-05;1.135457967351116e-06;0.0;1.135457967351116e-06
0.008;9817499999.0;9817500003.0;-4.0;8.515934755133369e-10;-0.00024000596115432858;4.541831869419536e-09;5.67728983675558e-07;0.0;5.67728983675558e-07
0.012;9817499999.0;9817500003.0;-4.0;1.4193224591888948e-09;-0.00024000141932245916;2.270915934682663e-09;1.4193224591888947e-07;0.0;1.4193224591888947e-07
0.016;9817499999.0;9817500003.0;-4.0;1.4193224591888948e-09;-0.00023999914840652447;5.677289836706657e-10;0.0;0.0;0.0
0.02;9817499999.0;9817500003.0;-4.0;8.515934755133369e-10;-0.0002399985806775408;0.0;-1.4193224591888947e-07;0.0;-1.4193224591888947e-07
0.024;9817499999.0;9817500003.0;-4.0;0.0;-0.0002399985806775408;-5.677289836706657e-10;-2.1289836887833425e-07;0.0;-2.1289836887833425e-07
0.028;9817499999.0;9817500003.0;-4.0;0.0;-0.00023999914840652447;-8.515934755059986e-10;0.0;0.0;0.0
0.032;9817499999.0;9817500003.0;-4.0;0.0;-0.00023999999999999998;0.0;0.0;0.0;0.0
0.036000000000000004;9817499999.0;9817500003.0;-4.0;0.0;-0.00023999999999999998;0.0;0.0;0.0;0.0
0.04000000000000001;9817499999.0;9817500003.0;-4.0;0.0;-0.00023999999999999998;0.0;0.0;0.0;0.0
0.04400000000000001;9817499999.0;9817500003.0;-4.0;0.0;-0.00023999999999999998;0.0;0.0;0.0;0.0
0.048000000000000015;9817499999.0;9817500003.0;-4.0;0.0;-0.00023999999999999998;0.0;0.0;0.0;0.0
0.05200000000000002;9817498594.0;9817500003.0;-4.0;-0.35127668018410735;-0.00023999999999999998;0.0;-87.81917004602684;0.0;-87.81917004602684
0.05600000000000002;9817484592.0;9817500003.0;-1409.0;-3.5007084826351322;-0.00023999999999999998;-0.43557668018410733;-787.3579506127562;0.0;-787.3579506127562
0.060000000000000026;9817235419.0;9817498260.0;-13668.0;-62.29323542805487;-0.43581668018410735;-3.884971802451025;-14698.131736354935;0.0;-14698.131736354935
0.06400000000000003;9816759127.0;9817480977.0;-245558.0;-119.07294151134892;-4.320788482635132;-72.70592694541973;-14194.926520823512;0.0;-14194.926520823512
0.06800000000000003;9815867345.0;9817172871.0;-413744.0;-222.94543398269073;-77.02671542805487;-66.87086608329403;-25968.123117835454;-166.66666666666666;-25801.456451168786
0.07200000000000004;9814373716.0;9816597281.0;-729936.0;-373.4071940771407;-143.8975815113489;-122.84401247134184;-37615.440023612486;-583.3333333333334;-37032.10669027915
0.07600000000000004;9812040400.0;9815530315.0;-1156599.0;-583.3290876719748;-266.74159398269074;-176.06154009444992;-52480.47339870853;-1250.0;-51230.47339870853
0.08000000000000004;9808632230.0;9813759103.0;-1718703.0;-852.0424220260403;-442.80313407714067;-243.64813359483406;-67178.33358851638;-2250.0;-64928.33358851638
0.08400000000000005;9803929315.0;9811013298.0;-2381068.0;-1175.7286750171138;-686.4512676719747;-308.4552343540655;-80921.56324776837;-3583.3333333333335;-77338.22991443504
0.08800000000000005;9797764579.0;9807033672.0;-3104357.0;-1541.1839553936836;-994.9065020260402;-367.0835929910736;-91363.82009414246;-5500.0;-85863.82009414246
0.09200000000000005;9790055397.0;9801585712.0;-3821133.0;-1927.2952849973808;-1361.9900950171138;-408.4618403765696;-96527.8324009243;-7916.666666666667;-88611.16573425764
0.09600000000000006;9780788037.0;9794503905.0;-4448508.0;-2316.8399920604566;-1770.4519353936835;-423.75382960369734;-97386.17676576893;-10750.0;-86636.17676576893
0.10000000000000006;9770009690.0;9785727082.0;-4939045.0;-2694.586535974969;-2194.205764997381;-418.9769270630759;-94436.63597862815;-13916.666666666666;-80519.96931196148
0.10400000000000006;9757841676.0;9775274352.0;-5264662.0;-3042.0033413786978;-2613.1826920604567;-397.28356391451234;-86854.20135093216;-17083.333333333332;-69770.86801759883
0.10800000000000007;9744470558.0;9763232487.0;-5390811.0;-3342.779340695213;-3010.466255974969;-354.98574540372874;-75193.99982912876;-20333.333333333332;-54860.66649579543
0.11200000000000007;9730116157.0;9749770679.0;-5300121.0;-3588.6002224573917;-3365.452001378698;-295.33459931651487;-61455.220440544734;-23416.666666666668;-38038.55377387807
0.11600000000000008;9715000484.0;9735127533.0;-5011376.0;-3778.9180633374935;-3660.7866006952127;-228.49618176217882;-47579.46022002545;-26166.666666666668;-21412.793553358784
0.12000000000000008;9699339639.0;9719570402.0;-4569918.0;-3915.21092396189;-3889.2827824573915;-163.83036088010203;-34073.21515609908;-28500.0;-5573.2151560990815
0.12400000000000008;9683327882.0;9703357950.0;-4018311.0;-4002.93916736306;-4053.1131433374935;-103.19644062439647;-21932.060850292488;-30166.666666666668;8234.60581637418
0.12800000000000009;9667113087.0;9686732712.0;-3404830.0;-4053.6985447019474;-4156.30958396189;-50.9193834011694;-12689.844334721896;-31500.0;18810.155665278104
0.1320000000000001;9650797230.0;9669903797.0;-2790710.0;-4078.964093062916;-4207.228967363059;-13.912177338887886;-6316.387090242188;-32333.333333333332;26016.946243091144
0.1360000000000001;9634445552.0;9653019233.0;-2222003.0;-4087.919312090716;-4221.141144701947;8.856871639030942;-2238.804756950003;-32833.333333333336;30594.52857638333
0.1400000000000001;9618092427.0;9636170096.0;-1724544.0;-4088.281092648149;-4212.284273062916;20.89232097219974;-90.44513935816667;-32916.666666666664;32826.221527308495
0.1440000000000001;9601750457.0;9619404529.0;-1312102.0;-4085.4921071199446;-4191.391952090717;24.38473944256748;697.2463820510484;-32833.333333333336;33530.57971538438
0.1480000000000001;9585420242.0;9602736501.0;-986044.0;-4082.553718544771;-4167.007212648149;22.352465528204448;734.597143793394;-32666.666666666668;33401.26381046006
0.1520000000000001;9569097769.0;9586157883.0;-737641.0;-4080.6179724956637;-4144.654747119945;17.842568575173573;483.9365122768413;-32583.333333333332;33067.26984561017
0.1560000000000001;9552778761.0;9569650635.0;-552866.0;-4079.751858533296;-4126.812178544771;13.022246049107707;216.52849059194068;-32416.666666666668;32633.195157258608
0.16000000000000011;9536460405.0;9553195476.0;-416715.0;-4079.588757805966;-4113.789932495663;9.03517396236748;40.77518183248685;-32250.0;32290.775181832487
0.16400000000000012;9520141478.0;9536776457.0;-316052.0;-4079.7315012486047;-4104.754758533296;6.202880727330012;-35.68586065966883;-32166.666666666668;32130.980806007
0.16800000000000012;9503821802.0;9520382250.0;-240772.0;-4079.918891969824;-4098.551877805966;4.3740565573612;-46.8476803048361;-32083.333333333332;32036.485653028496
0.17200000000000013;9487501643.0;9504005539.0;-183737.0;-4080.0395008734777;-4094.1778212486047;3.2347092787808833;-30.152225913411712;-32083.333333333332;32053.18110741992
0.17600000000000013;9471181320.0;9487641767.0;-140124.0;-4080.0806561617865;-4090.943111969824;2.4961710963461883;-10.288822077200166;-32000.0;31989.7111779228
0.18000000000000013;9454861034.0;9471287980.0;-106660.0;-4080.0713069609837;-4088.4469408734776;1.9666847116909594;2.3373002006792376;-31916.666666666668;31919.00396686735
0.18400000000000014;9438540856.0;9454942059.0;-81025.0;-4080.0441954931384;-4086.4802561617867;1.5474492008029301;6.777866961328982;-31916.666666666668;31923.444533627997
0.18800000000000014;9422220775.0;9438602328.0;-61472.0;-4080.0200136277763;-4084.9328069609837;1.2002914678450907;6.0454663405380415;-31916.666666666668;31922.712133007204
0.19200000000000014;9405900750.0;9422267398.0;-46623.0;-4080.006185439579;-4083.7325154931386;0.91512186536238;3.4570470493235916;-31916.666666666668;31920.12371371599
0.19600000000000015;9389580742.0;9405936129.0;-35379.0;-4080.0017647687396;-4082.8173936277763;0.6884681881974757;1.1051677098521395;-31666.666666666668;31667.77183437652
0.20000000000000015;9373260730.0;9389607614.0;-26872.0;-4080.0027550450636;-4082.128925439579;0.5148406708390212;-0.24756908101153385;-31250.0;31249.75243091899
0.20400000000000015;9356940708.0;9373281158.0;-20428.0;-4080.0054679905274;-4081.6140847687398;0.38564972367612427;-0.6782363659567636;-30666.666666666668;30665.988430300713
0.20800000000000016;9340620676.0;9356956245.0;-15537.0;-4080.007763739779;-4081.2284350450636;0.2907470545360411;-0.5739373128790248;-29666.666666666668;29666.09272935379
0.21200000000000016;9324300639.0;9340632495.0;-11819.0;-4080.008950190596;-4080.9376879905276;0.220784250748693;-0.2966127042327571;-28250.0;28249.70338729577
0.21600000000000016;9307980602.0;9324309628.0;-8989.0;-4080.0091815960777;-4080.716903739779;0.16861354918319194;-0.05785137045677402;-26333.333333333332;26333.275481962875
0.22000000000000017;9291660565.0;9307987435.0;-6833.0;-4080.0088897637943;-4080.5482901905957;0.1291285945180789;0.07295807085938577;-24000.0;24000.072958070858
0.22400000000000017;9275340531.0;9291665759.0;-5194.0;-4080.008449248682;-4080.4191615960776;0.09863183228344496;0.11012877803295851;-21166.666666666668;21166.7767954447
0.22800000000000017;9259020498.0;9275344477.0;-3946.0;-4080.0080661068428;-4080.320529763794;0.0753205151122529;0.09578545984822995;-18000.0;18000.09578545985
0.23200000000000018;9242700466.0;9259023497.0;-2999.0;-4080.007799132004;-4080.245209248682;0.057203141839181626;0.06674370968084986;-14750.0;14750.066743709682
0.23600000000000018;9226380435.0;9242702745.0;-2279.0;-4080.0076256442458;-4080.1880061068427;0.04346697483879325;0.04337193956871488;-11500.0;11500.04337193957
0.24000000000000019;9210060404.0;9226382167.0;-1732.0;-4080.007499416803;-4080.144539132004;0.03299348775817634;0.031556860676573706;-8416.666666666666;8416.698223527343
0.2440000000000002;9193740373.0;9210061721.0;-1317.0;-4080.0073829023518;-4080.111545644246;0.025026227442594973;0.029128612823114963;-5750.0;5750.029128612823
0.2480000000000002;9177420344.0;9193741375.0;-1002.0;-4080.0072566896697;-4080.086519416803;0.01901651445132302;0.0315531705155081;-3500.0;3500.0315531705155
0.25200000000000017;9161100314.0;9177421105.0;-761.0;-4080.0071161753267;-4080.067502902352;0.01458621268193383;0.03512858575049904;-1666.6666666666667;1666.7017952524172
0.25600000000000017;9144780286.0;9161100894.0;-580.0;-4080.0069644682076;-4080.05291668967;0.01100051434332272;0.03792677978253778;-333.3333333333333;333.37126011311585
0.2600000000000002;9128460258.0;9144780727.0;-441.0;-4080.006806548145;-4080.0419161753266;0.008491707118992053;0.03948001563003345;500.0;-499.96051998436997
0.2640000000000002;9112140230.0;9128460594.0;-336.0;-4080.0066462035966;-4080.0334244682076;0.00645792006253032;0.04008613711903308;833.3333333333334;-833.2932471962143
0.2680000000000002;9095820204.0;9112140487.0;-257.0;-4080.006485280816;-4080.026966548145;0.004900344548332214;0.04023069516279065;1083.3333333333333;-1083.2931026381705
0.2720000000000002;9079500178.0;9095820399.0;-195.0;-4080.006324141447;-4080.0220662035968;0.00388092278080876;0.04028484227092122;1000.0;-999.9597151577291
0.2760000000000002;9063180152.0;9079500327.0;-149.0;-4080.0061624178848;-4080.018185280816;0.002921139368936565;0.04043089052174764;916.6666666666666;-916.6262357761449
0.2800000000000002;9046860127.0;9063180266.0;-114.0;-4080.005999607689;-4080.015264141447;0.0022617235622419685;0.04070254897214909;666.6666666666666;-666.6259641176945
0.2840000000000002;9030540103.0;9046860214.0;-87.0;-4080.0058353503528;-4080.0130024178848;0.0017828101958912157;0.0410643340273964;500.0;-499.9589356659726
0.2880000000000002;9014220080.0;9030540170.0;-67.0;-4080.00566950451;-4080.011219607689;0.0013642573362631083;0.04146146068251255;333.3333333333333;-333.2918718726508
0.2920000000000002;8997900057.0;9014220131.0;-51.0;-4080.0055020613627;-4080.0098553503526;0.00112584584258002;0.041860786836878106;250.0;-249.95813921316312
0.2960000000000002;8981580035.0;8997900097.0;-40.0;-4080.005333093863;-4080.00872950451;0.000827443147500162;0.042241874893989007;250.0;-249.957758125106
0.3000000000000002;8965260014.0;8981580066.0;-31.0;-4080.0051626721242;-4080.0079020613625;0.0007089674995768291;0.04260543471445999;166.66666666666666;-166.6240612319522
0.3040000000000002;8948939993.0;8965260038.0;-24.0;-4080.004990861154;-4080.007193093863;0.0005904217387069366;0.042952742546731315;83.33333333333333;-83.2903805907866
0.3080000000000002;8932619973.0;8948940012.0;-19.0;-4080.004817691324;-4080.0066026721242;0.0004718109703389928;0.04329245746248489;83.33333333333333;-83.29004087587084
0.3120000000000002;8916299953.0;8932619988.0;-15.0;-4080.0046431861956;-4080.006130861154;0.00041316982969874516;0.04362628214948927;83.33333333333333;-83.28970705118384
0.3160000000000002;8899979935.0;8916299966.0;-13.0;-4080.0044673662064;-4080.005717691324;0.00029450512874973356;0.04395499729525909;83.33333333333333;-83.28937833603807
0.32000000000000023;8883659917.0;8899979945.0;-10.0;-4080.0042902429955;-4080.0054231861955;0.0003558199891813274;0.044280802740104264;0.0;0.044280802740104264
0.32400000000000023;8867339900.0;8883659925.0;-8.0;-4080.004111835014;-4080.0050673662063;0.0002971232106574462;0.04460199534150888;0.0;0.04460199534150888
0.32800000000000024;8851019883.0;8867339906.0;-6.0;-4080.0039321672416;-4080.0047702429956;0.000298407981517812;0.04491694312491745;0.0;0.04491694312491745
0.33200000000000024;8834699867.0;8851019889.0;-6.0;-4080.0037512581307;-4080.004471835014;0.0001796677724996698;0.045227277723824955;0.0;0.045227277723824955
0.33600000000000024;8818379852.0;8834699872.0;-5.0;-4080.0035691318076;-4080.0042921672416;0.00024090911074381438;0.045531580781243974;0.0;0.045531580781243974
0.34000000000000025;8802059838.0;8818379856.0;-4.0;-4080.003385812687;-4080.004051258131;0.0002421263234282378;0.04582978010603256;0.0;0.04582978010603256
0.34400000000000025;8785739824.0;8802059841.0;-3.0;-4080.003201323193;-4080.0038091318074;0.0002433191202726448;0.04612237353285309;0.0;0.04612237353285309
0.34800000000000025;8769419812.0;8785739827.0;-3.0;-4080.003015686034;-4080.003565812687;0.00018448949413141236;0.046409289780058316;0.0;0.046409289780058316
0.35200000000000026;8753099799.0;8769419814.0;-2.0;-4080.0028289239203;-4080.003381323193;0.0002456371589687478;0.04669052839290089;0.0;0.04669052839290089
0.35600000000000026;8736779788.0;8753099802.0;-3.0;-4080.002641062116;-4080.003135686034;0.000126762113723089;0.046965451133473834;0.0;0.046965451133473834
0.36000000000000026;8720459778.0;8736779790.0;-2.0;-4080.0024521236132;-4080.0030089239203;0.0002478618043824099;0.0472346256401579;0.0;0.0472346256401579
0.36400000000000027;8704139768.0;8720459779.0;-1.0;-4080.002262131973;-4080.002761062116;0.0002489385028638935;0.04749791003177961;0.0;0.04749791003177961
0.36800000000000027;8687819759.0;8704139769.0;-1.0;-4080.0020711073503;-4080.002512123613;0.00018999164012711844;0.04775615570906666;0.0;0.04775615570906666
0.3720000000000003;8671499750.0;8687819760.0;-1.0;-4080.001879080402;-4080.002322131973;0.00019102462283626664;0.04800673707450187;0.0;0.04800673707450187
0.3760000000000003;8655179743.0;8671499752.0;-2.0;-4080.0016860718506;-4080.00213110735;0.00013202694799474557;0.048252137844428944;0.0;0.048252137844428944
0.3800000000000003;8638859736.0;8655179745.0;-2.0;-4080.001492104121;-4080.001999080402;0.00019300855137771578;0.04849193237532745;0.0;0.04849193237532745
0.3840000000000003;8622539730.0;8638859738.0;-2.0;-4080.001297204464;-4080.0018060718508;0.0001939677295013098;0.04872491422247549;0.0;0.04872491422247549
0.3880000000000003;8606219725.0;8622539732.0;-2.0;-4080.001101398144;-4080.0016121041213;0.00019489965688990196;0.04895158008366707;0.0;0.04895158008366707
0.3920000000000003;8589899721.0;8606219727.0;-2.0;-4080.0009047078697;-4080.0014172044644;0.00019580632033466827;0.049172568537869665;0.0;0.049172568537869665
0.3960000000000003;8573579717.0;8589899723.0;-2.0;-4080.0007071572027;-4080.001221398144;0.00019669027415147866;0.04938766676332307;0.0;0.04938766676332307
0.4000000000000003;8557259714.0;8573579719.0;-2.0;-4080.0005087756635;-4080.00102470787;0.00019755066705329227;0.0495953847803321;0.0;0.0495953847803321
0.4040000000000003;8540939712.0;8557259716.0;-2.0;-4080.000309584259;-4080.000827157203;0.0001983815391213284;0.04979785114755941;0.0;0.04979785114755941
0.4080000000000003;8524619711.0;8540939714.0;-2.0;-4080.0001096105248;-4080.0006287756637;0.00019919140459023765;0.04999343354938901;0.0;0.04999343354938901
0.4120000000000003;8508299710.0;8524619713.0;-2.0;-4079.9999088794393;-4080.000429584259;0.00019997373419755604;0.050182771360596234;0.0;0.050182771360596234
0.4160000000000003;8491979711.0;8508299713.0;-3.0;-4079.999707416268;-4080.000229610525;0.00014073108559387038;0.05036579284478648;0.0;0.05036579284478648
0.4200000000000003;8475659712.0;8491979713.0;-2.0;-4079.999505245422;-4080.0000888794393;0.0002614631712276605;0.050542711505841;0.0;0.050542711505841
0.4240000000000003;8459339714.0;8475659714.0;-2.0;-4079.9993023967077;-4079.999827416268;0.000202170846023364;0.05071217856311705;0.0;0.05071217856311705
0.4280000000000003;8443019717.0;8459339716.0;-2.0;-4079.9990988911313;-4079.999625245422;0.0002028487142524682;0.050876394084298227;0.0;0.050876394084298227
0.43200000000000033;8426699721.0;8443019719.0;-2.0;-4079.9988947576458;-4079.999422396708;0.0002035055763371929;0.051033371391895344;0.0;0.051033371391895344
0.43600000000000033;8410379725.0;8426699723.0;-2.0;-4079.9986900209497;-4079.9992188911315;0.00020413348556758137;0.051184174026275286;0.0;0.051184174026275286
0.44000000000000034;8394059730.0;8410379727.0;-2.0;-4079.9984847085743;-4079.999014757646;0.00020473669610510115;0.05132809383212589;0.0;0.05132809383212589
0.44400000000000034;8377739736.0;8394059732.0;-2.0;-4079.998278846355;-4079.99881002095;0.00020531237532850355;0.05146555486135185;0.0;0.05146555486135185
0.44800000000000034;8361419743.0;8377739738.0;-2.0;-4079.9980724606894;-4079.9986047085745;0.0002058622194454074;0.05159641636964807;0.0;0.05159641636964807
0.45200000000000035;8345099751.0;8361419745.0;-2.0;-4079.9978655765576;-4079.998398846355;0.00020638566547859227;0.0517210329462614;0.0;0.0517210329462614
0.45600000000000035;8328779760.0;8345099753.0;-2.0;-4079.997658223765;-4079.9981924606896;0.0002068841317850456;0.05183819814646995;0.0;0.05183819814646995
0.46000000000000035;8312459769.0;8328779762.0;-2.0;-4079.997450427293;-4079.9979855765578;0.0002073527925858798;0.05194911796024826;0.0;0.05194911796024826
0.46400000000000036;8296139779.0;8312459771.0;-2.0;-4079.9972422118367;-4079.997778223765;0.00020779647184099304;0.052053864123990934;0.0;0.052053864123990934
0.46800000000000036;8279819790.0;8296139781.0;-2.0;-4079.9970336089054;-4079.9975704272933;0.00020821545649596374;0.05215073281306104;0.0;0.05215073281306104
0.47200000000000036;8263499802.0;8279819792.0;-2.0;-4079.996824643195;-4079.997362211837;0.00020860293125224416;0.05224142762472184;0.0;0.05224142762472184
0.47600000000000037;8247179815.0;8263499804.0;-2.0;-4079.9966153394025;-4079.9971536089056;0.00020896571049888735;0.05232594810422597;0.0;0.05232594810422597
0.48000000000000037;8230859829.0;8247179817.0;-2.0;-4079.996405729036;-4079.996944643195;0.0002093037924169039;0.05240259167749173;0.0;0.05240259167749173
0.4840000000000004;8214539843.0;8230859831.0;-2.0;-4079.9961958370754;-4079.9967353394027;0.0002096103667099669;0.05247299009170092;83.33333333333333;-83.28086034324163
0.4880000000000004;8198219859.0;8214539845.0;-2.0;-4079.9959856887854;-4079.996525729036;0.0002098919603668037;0.052537072519953654;83.33333333333333;-83.28079626081337
0.4920000000000004;8181899875.0;8198219860.0;-1.0;-4079.995775315108;-4079.9963158370756;0.00027014829038307653;0.052593419354707294;83.33333333333333;-83.28073991397862
