Zeit[sec];Sollposition[°];Istposition[°];Positionsschleppfehler[°];Sollgeschwindigkeit[°/s];Istgeschwindigkeit[°/s];Geschwindigkeitsdifferenz[°/s];Sollbeschleunigung[°/s*s];Istbeschleunigung[°/s*s];Beschleunigungsdifferenz[°/s*s]
0.0;0.0;5.0;-5.0;-0.0;-0.00021499999999999997;0.0;0.0;0.0;0.0
0.004;0.0;5.0;-5.0;-0.0;-0.00021499999999999997;0.0;0.0;0.0;0.0
0.008;0.0;5.0;-5.0;-0.0;-0.00021499999999999997;0.0;0.0;0.0;0.0
0.012;0.0;5.0;-5.0;-0.0;-0.00021499999999999997;0.0;0.0;0.0;0.0
0.016;0.0;5.0;-5.0;-0.0;-0.00021499999999999997;0.0;0.0;0.0;0.0
0.02;0.0;5.0;-5.0;-0.0;-0.00021499999999999997;0.0;0.0;0.0;0.0
0.024;0.0;5.0;-5.0;-0.0;-0.00021499999999999997;0.0;0.0;0.0;0.0
0.028;0.0;5.0;-5.0;-0.0;-0.00021499999999999997;0.0;0.0;0.0;0.0
0.032;0.0;5.0;-5.0;-0.0;-0.00021499999999999997;0.0;0.0;0.0;0.0
0.036000000000000004;0.0;5.0;-5.0;-0.0;-0.00021499999999999997;0.0;0.0;0.0;0.0
0.04000000000000001;0.0;5.0;-5.0;-0.0;-0.00021499999999999997;0.0;0.0;0.0;0.0
0.04400000000000001;0.0;5.0;-5.0;-0.0;-0.00021499999999999997;0.0;0.0;0.0;0.0
0.048000000000000015;0.0;5.0;-5.0;-0.0;-0.00021499999999999997;0.0;0.0;0.0;0.0
0.05200000000000002;0.0;5.0;-5.0;-0.0;-0.00021499999999999997;0.0;0.0;0.0;0.0
0.05600000000000002;0.0;5.0;-5.0;-0.0;-0.00021499999999999997;0.0;0.0;0.0;0.0
0.060000000000000026;0.0;5.0;-5.0;-0.0;-0.00021499999999999997;0.0;0.0;0.0;0.0
0.06400000000000003;0.0;5.0;-5.0;-0.0;-0.00021499999999999997;0.0;0.0;0.0;0.0
0.06800000000000003;0.0;5.0;-5.0;-0.0;-0.00021499999999999997;0.0;0.0;0.0;0.0
0.07200000000000004;0.0;5.0;-5.0;-0.0;-0.00021499999999999997;0.0;0.0;0.0;0.0
0.07600000000000004;188.0;5.0;-5.0;0.047041954310853104;-0.00021499999999999997;0.0;11.760488577713277;0.0;11.760488577713277
0.08000000000000004;2063.0;5.0;183.0;0.4688047280951064;-0.00021499999999999997;0.055125954310853105;105.44069344606334;0.0;105.44069344606334
0.08400000000000005;11280.0;224.0;1839.0;2.3042703021712203;0.054910954310853105;0.49297077378425325;458.86639351902846;0.0;458.86639351902846
0.08800000000000005;41746.0;2415.0;8865.0;7.616399042601974;0.5478817280951064;2.137583574076114;1328.0321851076883;0.0;1328.0321851076883
0.09200000000000005;119032.0;13156.0;28590.0;19.32153823638118;2.6854653021712203;6.160303740430754;2926.2847984448017;0.0;2926.2847984448017
0.09600000000000006;280675.0;48539.0;70493.0;40.410726116653315;8.845769042601974;13.506968193779207;5272.296970068034;0.0;5272.296970068034
0.10000000000000006;572627.0;137949.0;142726.0;72.98820557361218;22.35273723638118;24.19520688027213;8144.369864239716;83.33333333333333;8061.036530906382
0.10400000000000006;1044678.0;324140.0;248487.0;118.01254166255418;46.54794411665331;37.12520245695886;11256.084022235502;166.66666666666666;11089.417355568836
0.10800000000000007;1748122.0;658832.0;385846.0;175.86104585509898;83.67314657361217;50.930773088942004;14462.126048136199;416.6666666666667;14045.459381469533
0.11200000000000007;2735178.0;1197247.0;550875.0;246.76401334393896;134.60391966255418;64.9447511925448;17725.741872209994;666.6666666666666;17059.075205543326
0.11600000000000008;4057344.0;1995441.0;739737.0;330.5415321213018;199.54867085509898;79.02403348883996;20944.379694340718;1083.3333333333333;19861.046361007386
0.12000000000000008;5762106.0;3109731.0;947613.0;426.19031801693814;278.57270434393894;92.7161867773629;23912.196473909076;1583.3333333333333;22328.863140575744
0.12400000000000008;7889892.0;4594886.0;1167220.0;531.9466934717277;371.28889112130184;105.09188689563626;26439.093863697395;2166.6666666666665;24272.427197030727
0.12800000000000009;10472233.0;6500409.0;1389483.0;645.5850550438835;476.3807780169381;115.31368445478955;28409.59039303894;2916.6666666666665;25492.92372637227
0.1320000000000001;13530726.0;8867186.0;1605047.0;764.623248148986;591.6944624717277;122.90761357215581;29759.548276275636;3750.0;26009.548276275636
0.1360000000000001;17077348.0;11725594.0;1805132.0;886.6555207371208;714.6020760438835;127.64184810510255;30508.068147033697;4666.666666666667;25841.40148036703
0.1400000000000001;21116592.0;15094569.0;1982779.0;1009.8108223348461;842.243924148986;129.6710935881348;30788.825399431316;5583.333333333333;25205.492066097984
0.1440000000000001;25648526.0;18982229.0;2134363.0;1132.9834582412584;971.9150177371208;129.67341359772524;30793.15897660308;6583.333333333333;24209.82564326975
0.1480000000000001;30671482.0;23388582.0;2259944.0;1255.738995679101;1101.588431334846;128.57261890641234;30688.884359460644;7583.333333333333;23105.551026127312
0.1520000000000001;36183724.0;28309226.0;2362256.0;1378.0605701005215;1230.1610502412584;127.15495343784255;30580.39360535514;8666.666666666666;21913.726938688476
0.1560000000000001;42184130.0;33738490.0;2445234.0;1500.1014137004286;1357.316003679101;125.88962842142064;30510.210899976755;9583.333333333334;20926.877566643423
0.16000000000000011;48672229.0;39671312.0;2512818.0;1622.0246873217843;1483.2056321005216;124.94695559990691;30480.818405338938;10583.333333333334;19897.485072005602
0.16400000000000012;55647975.0;46103922.0;2568307.0;1743.93640441061;1608.1525877004285;124.30930062135576;30477.92927220644;11583.333333333334;18894.595938873106
0.16800000000000012;63111497.0;53033769.0;2614206.0;1865.8804356393434;1732.4618883217843;123.88537408882576;30486.00780718334;12583.333333333334;17902.674473850006
0.17200000000000013;71062938.0;60459158.0;2652339.0;1987.8600712799655;1856.34726241061;123.58375022873338;30494.908910155515;13583.333333333334;16911.575576822182
0.17600000000000013;79502386.0;68378882.0;2684056.0;2109.8619143749993;1979.9310126393434;123.34346664062195;30500.46077375845;14500.0;16000.460773758448
0.18000000000000013;88429873.0;76791979.0;2710407.0;2231.871566746465;2103.2744792799654;123.13493609503394;30502.41309286639;15416.666666666666;15085.746426199725
0.18400000000000014;97845394.0;85697616.0;2732257.0;2353.8800658681084;2226.4094153749993;122.94920237146562;30502.124780410893;16416.666666666668;14085.458113744227
0.18800000000000014;107748931.0;95095050.0;2750344.0;2475.884216539507;2349.358617746465;122.78624012164346;30501.037667849687;17333.333333333332;13167.704334516355
0.19200000000000014;118140469.0;104983629.0;2765302.0;2597.884414892789;2472.1448578681084;122.64734467139897;30500.049588320508;18416.666666666668;12083.38292165384
0.19600000000000015;129019995.0;115362797.0;2777672.0;2719.8813700603573;2594.7922025395073;122.53210835328173;30499.238791892025;19333.333333333332;11165.905458558693
0.20000000000000015;140387481.0;126232094.0;2787901.0;2841.8712674595804;2717.324310892789;122.4368021675682;30497.474349805772;20333.333333333332;10164.141016472438
0.20400000000000015;152242850.0;137591138.0;2796343.0;2963.842097173826;2839.7611130603573;122.35290339922312;30492.707428561404;21166.666666666668;9326.040761894736
0.20800000000000016;164585508.0;149439594.0;2803256.0;3085.6644548115314;2962.1140164595804;122.26808871424555;30455.589409426353;22166.666666666668;8288.922742759685
0.21200000000000016;177412357.0;161777122.0;2808386.0;3206.7120766447542;3084.382105173826;122.04294763770531;30261.905458305704;23083.333333333332;7178.572124972373
0.21600000000000016;190714396.0;174602822.0;2809535.0;3325.509709946059;3206.4250528115313;121.0970288332228;29699.408325326203;24166.666666666668;5532.7416586595355
0.22000000000000017;204473982.0;187912910.0;2801486.0;3439.8962387653064;3327.522081644754;118.45152630130497;28596.632204811838;25000.0;3596.63220481184
0.22400000000000017;218663820.0;201696804.0;2777178.0;3547.4593174462057;3445.973607946059;113.34128481924745;26890.769670224814;26000.0;890.7696702248131
0.22800000000000017;233247090.0;215934063.0;2729757.0;3645.8173420222397;3559.3148927653065;105.52397568089918;24589.506144008512;26750.0;-2160.49385599149
0.23200000000000018;248178604.0;230593418.0;2653672.0;3732.8781939804207;3664.8388684462057;95.08636957603403;21765.21298954526;27583.333333333332;-5818.12034378807
0.23600000000000018;263407134.0;245633118.0;2545486.0;3807.1325443185096;3759.9252380222397;82.40885395818123;18563.587584522225;28166.666666666668;-9603.079082144443
0.24000000000000019;278878166.0;261002454.0;2404680.0;3867.757793196282;3842.334091980421;68.19969233808888;15156.312219443065;28666.666666666668;-13510.354447223603
0.2440000000000002;294536543.0;276644589.0;2233577.0;3914.593949841616;3910.53378431851;53.267819877772126;11709.039161333521;28916.666666666668;-17207.62750533315
0.2480000000000002;310329719.0;292499795.0;2036748.0;3948.293779169871;3963.801604196282;38.37250964533405;8424.957332063741;28916.666666666668;-20491.70933460293
0.25200000000000017;326211612.0;308508491.0;1821228.0;3970.473171446019;4002.174113841616;24.432469328255138;5544.848069037016;28750.0;-23205.151930962984
0.25600000000000017;342145319.0;324614917.0;1596695.0;3983.426595652729;4026.606583169871;12.524473276148;3238.3560516774423;28333.333333333332;-25094.97728165589
0.2600000000000002;358103909.0;340771441.0;1373878.0;3989.6471824272285;4039.131056446019;3.3722932067098554;1555.1466936249199;27750.0;-26194.85330637508
0.2640000000000002;374070096.0;356941454.0;1162455.0;3991.5466189975155;4042.503349652729;-2.8706022255005337;474.859142571745;26833.333333333332;-26358.474190761586
0.2680000000000002;390034966.0;373099984.0;970112.0;3991.2172741776712;4039.6327474272284;-6.371312429712816;-82.33620496105232;25916.666666666668;-25999.00287162772
0.2720000000000002;405995614.0;389233029.0;801937.0;3990.1617747104683;4033.2614349975156;-7.560869819844356;-263.8748668007338;24916.666666666668;-25180.541533467403
0.2760000000000002;421952431.0;405335831.0;659783.0;3989.2041005690367;4025.7005651776713;-7.1681214672030364;-239.41853535791324;23916.666666666668;-24156.08520202458
0.2800000000000002;437906941.0;421409960.0;542471.0;3988.627300442479;4018.532443710468;-6.002090141431381;-144.20003163945694;22916.666666666668;-23060.866698306127
0.2840000000000002;453860553.0;437460081.0;446860.0;3988.4027955510446;4012.530353569037;-4.688073126557811;-56.126222858551955;21833.333333333332;-21889.459556191883
0.2880000000000002;469814115.0;453491450.0;369103.0;3988.3904201554296;4007.842280442479;-3.5680558914345966;-3.093848903745311;20750.0;-20753.093848903743
0.2920000000000002;485767949.0;469508546.0;305569.0;3988.45813981292;4004.2742245510444;-2.7443373956148207;16.929914372553867;19666.666666666668;-19649.736752294113
0.2960000000000002;501722055.0;485514665.0;253284.0;3988.5263162639835;4001.5298871554296;-2.1805353425097564;17.044112765915997;18666.666666666668;-18649.62255390075
0.3000000000000002;517676317.0;501512062.0;209993.0;3988.5654984754065;3999.34935181292;-1.7933365489361677;9.795552855734968;17750.0;-17740.204447144264
0.3040000000000002;533630625.0;517502286.0;174031.0;3988.57659916169;3997.5560152639837;-1.5071837885770947;2.7751715708745905;16750.0;-16747.224828429127
0.3080000000000002;549584912.0;533486481.0;144144.0;3988.571619629506;3996.0488314754066;-1.274040313716796;-1.2448830459561577;15750.0;-15751.244883045956
0.3120000000000002;565539160.0;549465580.0;119332.0;3988.5619422499067;3994.77479116169;-1.0718955321835892;-2.419344899863063;14833.333333333334;-14835.752678233197
0.3160000000000002;581493377.0;565440391.0;98769.0;3988.5540810881257;3993.702895629506;-0.8938863795997349;-1.9652904452414077;13833.333333333334;-13835.298623778575
0.32000000000000023;597447578.0;581411627.0;81750.0;3988.549982747225;3992.8090092499065;-0.7396781617808301;-1.0245852251955512;12916.666666666666;-12917.691251891862
0.32400000000000023;613401775.0;597379904.0;67674.0;3988.5489764576773;3992.0693310881256;-0.6093663409005785;-0.25157238690098893;11833.333333333334;-11833.584905720236
0.32800000000000024;629355974.0;613345743.0;56032.0;3988.549595112267;3991.459964747225;-0.5016122895476656;0.154663647435882;10916.666666666666;-10916.51200301923
0.33200000000000024;645310177.0;629309576.0;46398.0;3988.550621451142;3990.9583524576774;-0.41364334541049175;0.2565847187270265;9916.666666666666;-9916.410081947939
0.33600000000000024;661264383.0;645271754.0;38423.0;3988.551411239715;3990.544709112267;-0.34189866112501477;0.19744714325042878;9000.0;-8999.802552856749
0.34000000000000025;677218591.0;661232565.0;31818.0;3988.551799694058;3990.202810451142;-0.28322521142672485;0.0971135857525951;8000.0;-7999.902886414247
0.34400000000000025;693172800.0;677192243.0;26348.0;3988.551877419215;3989.919585239715;-0.23482154565726887;0.019431289274507435;7083.333333333333;-7083.3139020440585
0.34800000000000025;709127008.0;693150982.0;21818.0;3988.5518015094035;3989.684763694058;-0.19471227484291376;-0.018977452896251634;6166.666666666667;-6166.685644119563
0.35200000000000026;725081215.0;709108942.0;18066.0;3988.5516943186617;3989.490051419215;-0.16141190981124964;-0.026797685450219433;5250.0;-5250.02679768545
0.35600000000000026;741035422.0;725066256.0;14959.0;3988.5516166686243;3989.3286395094037;-0.13370819074179963;-0.0194125093457842;4250.0;-4250.019412509346
0.36000000000000026;756989630.0;741023035.0;12387.0;3988.551581175915;3989.194931318662;-0.1106736500378247;-0.008873177307577862;3333.3333333333335;-3333.342206510641
0.36400000000000027;772943837.0;756979372.0;10258.0;3988.5515763634858;3989.084257668624;-0.0915824927092217;-0.0012031073310936335;2500.0;-2500.001203107331
0.36800000000000027;788898044.0;772935342.0;8495.0;3988.5515856604093;3988.992675175915;-0.07581381242926;0.002324230877093214;1833.3333333333333;-1833.3310091024562
0.3720000000000003;804852251.0;788891009.0;7035.0;3988.5515969483836;3988.9168613634856;-0.06277070307623944;0.002821993575707893;1166.6666666666667;-1166.663844673091
0.3760000000000003;820806458.0;804846425.0;5826.0;3988.5516046208395;3988.8540906604094;-0.05197571202597828;0.001918113980536873;666.6666666666666;-666.6647485526861
0.3800000000000003;836760665.0;820801633.0;4825.0;3988.5516078563733;3988.8021149483834;-0.04303532754374828;0.0008088834420050262;250.0;-249.999191116558
0.3840000000000003;852714872.0;836756669.0;3996.0;3988.5516080607454;3988.7590796208397;-0.03564376446638562;5.1093024922010954e-05;0.0;5.1093024922010954e-05
0.3880000000000003;868669080.0;852711562.0;3310.0;3988.551606977974;3988.7234358563733;-0.029497795627776213;-0.0002706927944018389;-250.0;249.9997293072056
0.3920000000000003;884623287.0;868666337.0;2743.0;3988.551605805439;3988.6939380607455;-0.024382082771353453;-0.00029313378036022186;-416.6666666666667;416.6663735328863
0.3960000000000003;900577494.0;884621015.0;2272.0;3988.551605055111;3988.669555977974;-0.020254172535260295;-0.0001875820316854515;-416.6666666666667;416.666479084635
0.4000000000000003;916531701.0;900575612.0;1882.0;3988.5516047660735;3988.649301805439;-0.016770750327850692;-7.225935405585915e-05;-416.6666666666667;416.66659440731263
0.4040000000000003;932485908.0;916530142.0;1559.0;3988.5516047736287;3988.632531055111;-0.013889289037706476;1.8887931219069287e-06;-333.3333333333333;333.33333522212644
0.4080000000000003;948440115.0;932484616.0;1292.0;3988.5516048962895;3988.6186417660733;-0.011480992444830918;3.066520548600238e-05;-333.3333333333333;333.3333639985388
0.4120000000000003;964394323.0;948439044.0;1071.0;3988.5516050168358;3988.6071607736285;-0.009502877338945837;3.0136561690596864e-05;-166.66666666666666;166.66669680322835
0.4160000000000003;980348530.0;964393434.0;889.0;3988.5516050895303;3988.5976578962895;-0.007825879453775997;1.8173636817664374e-05;-166.66666666666666;166.66668484030347
0.4200000000000003;996302737.0;980347793.0;737.0;3988.551605114778;3988.5898320168358;-0.00653592730532182;6.311893230304122e-06;-166.66666666666666;166.6666729785599
0.4240000000000003;1012256944.0;996302126.0;611.0;3988.551605111171;3988.5832960895304;-0.005417974752617738;-9.017639968078583e-07;-166.66666666666666;166.66666576490266
0.4280000000000003;1028211151.0;1012256437.0;507.0;3988.551605097552;3988.577878114778;-0.004472003607133956;-3.404693416086957e-06;-83.33333333333333;83.33332992863991
0.43200000000000033;1044165359.0;1028210730.0;421.0;3988.5516050852702;3988.5734061111707;-0.0036980136187594326;-3.0704541131854057e-06;-83.33333333333333;83.33333026287922
0.43600000000000033;1060119566.0;1044165008.0;351.0;3988.5516050782435;3988.569708097552;-0.0030100122817202646;-1.7566890164744109e-06;-83.33333333333333;83.33333157664431
0.44000000000000034;1076073773.0;1060119274.0;292.0;3988.5516050761917;3988.56669808527;-0.0025370070266035327;-5.129550117999315e-07;-83.33333333333333;83.33333282037832
0.44400000000000034;1092027980.0;1076073530.0;243.0;3988.551605076751;3988.5641610782436;-0.0021070020520710386;1.3983481039758772e-07;0.0;1.3983481039758772e-07
0.44800000000000034;1107982187.0;1092027778.0;202.0;3988.5516050783363;3988.5620540761915;-0.0017629994404160243;3.963123162975535e-07;0.0;3.963123162975535e-07
0.45200000000000035;1123936394.0;1107982019.0;168.0;3988.551605079394;3988.560291076751;-0.0014619984149248921;2.644355845404789e-07;0.0;2.644355845404789e-07
0.45600000000000035;1139890602.0;1123936254.0;140.0;3988.5516050802025;3988.558829078336;-0.0012039989424010855;2.021351974690333e-07;-83.33333333333333;83.33333353546853
0.46000000000000035;1155844809.0;1139890484.0;118.0;3988.551605080326;3988.557625079394;-0.0009459991911171528;3.092281986027956e-08;-83.33333333333333;83.33333336425615
0.46400000000000036;1171799016.0;1155844710.0;99.0;3988.5516050802025;3988.5566790802027;-0.0008169998764060438;-3.092281986027956e-08;-83.33333333333333;83.33333330241051
0.46800000000000036;1187753223.0;1171798933.0;83.0;3988.55160508014;3988.5558620803263;-0.0006880001237732358;-1.5688783605583012e-08;0.0;-1.5688783605583012e-08
0.47200000000000036;1203707430.0;1187753153.0;70.0;3988.5516050798915;3988.5551740802025;-0.000559000062821724;-6.207301339600235e-08;0.0;-6.207301339600235e-08
0.47600000000000037;1219661637.0;1203707371.0;59.0;3988.5516050799533;3988.5546150801397;-0.0004730002483483986;1.546140993013978e-08;0.0;1.546140993013978e-08
0.48000000000000037;1235615845.0;1219661587.0;50.0;3988.5516050799533;3988.5541420798913;-0.00038699993820046075;0.0;0.0;0.0
0.4840000000000004;1251570052.0;1235615802.0;43.0;3988.5516050799533;3988.553755079953;-0.00030099999958110857;0.0;0.0;0.0
0.4880000000000004;1267524259.0;1251570015.0;37.0;3988.551605079767;3988.5534540799536;-0.00025800000003073364;-4.661160346586257e-08;0.0;-4.661160346586257e-08
0.4920000000000004;1283478466.0;1267524227.0;32.0;3988.551605080078;3988.5531960799535;-0.00021500018647202523;7.776179700158536e-08;0.0;7.776179700158536e-08
0.4960000000000004;1299432673.0;1283478438.0;28.0;3988.551605079767;3988.552981079767;-0.0001719996889733011;-7.776179700158536e-08;0.0;-7.776179700158536e-08
0.5000000000000003;1315386881.0;1299432649.0;24.0;3988.5516050799533;3988.552809080078;-0.0001720003110676771;4.661160346586257e-08;0.0;4.661160346586257e-08
0.5040000000000003;1331341088.0;1315386859.0;22.0;3988.551605080078;3988.552637079767;-8.599981356383068e-05;3.115019353572279e-08;0.0;3.115019353572279e-08
0.5080000000000003;1347295295.0;1331341069.0;19.0;3988.551605079767;3988.5525510799534;-0.00012899987541459268;-7.776179700158536e-08;0.0;-7.776179700158536e-08
0.5120000000000003;1363249502.0;1347295278.0;17.0;3988.551605080015;3988.552422080078;-8.600031105743255e-05;6.207301339600235e-08;0.0;6.207301339600235e-08
0.5160000000000003;1379203709.0;1363249487.0;15.0;3988.5516050799533;3988.552336079767;-8.599975171819096e-05;-1.546140993013978e-08;0.0;-1.546140993013978e-08
0.5200000000000004;1395157916.0;1379203696.0;13.0;3988.551605080015;3988.5522500800153;-8.600006185588427e-05;1.546140993013978e-08;0.0;1.546140993013978e-08
0.5240000000000004;1411112124.0;1395157904.0;12.0;3988.5516050798287;3988.5521640799534;-4.2999938159482554e-05;-4.661160346586257e-08;0.0;-4.661160346586257e-08
0.5280000000000004;1427066331.0;1411112112.0;12.0;3988.551605080078;3988.5521210800152;-1.864464138634503e-10;6.230038707144558e-08;0.0;6.230038707144558e-08
