Zeit[sec];Sollposition[°];Istposition[°];Positionsschleppfehler[°];Sollgeschwindigkeit[°/s];Istgeschwindigkeit[°/s];Geschwindigkeitsdifferenz[°/s];Sollbeschleunigung[°/s*s];Istbeschleunigung[°/s*s];Beschleunigungsdifferenz[°/s*s]
0.0;0.0;1.0;-1.0;-7.301745561590358e-23;-9.6e-05;0.0;1.0572268554658443e-20;0.0;1.0572268554658443e-20
0.004;0.0;1.0;-1.0;-2.765038088401968e-23;-9.6e-05;0.0;1.1341768682970973e-20;0.0;1.1341768682970973e-20
0.008;0.0;1.0;-1.0;1.2193825924539057e-24;-9.6e-05;0.0;7.217440869118397e-21;0.0;7.217440869118397e-21
0.012;0.0;1.0;-1.0;1.2240818506741936e-23;-9.6e-05;0.0;2.7553589785720075e-21;0.0;2.7553589785720075e-21
0.016;0.0;1.0;-1.0;1.1848478118982029e-23;-9.6e-05;0.0;-9.808509693997679e-23;0.0;-9.808509693997679e-23
0.02;0.0;1.0;-1.0;7.063679778046749e-24;-9.6e-05;0.0;-1.19619958523382e-21;0.0;-1.19619958523382e-21
0.024;0.0;1.0;-1.0;2.3987193322479682e-24;-9.6e-05;0.0;-1.1662401114496952e-21;0.0;-1.1662401114496952e-21
0.028;0.0;1.0;-1.0;-3.961542784894148e-25;-9.6e-05;0.0;-6.987184026843458e-22;0.0;-6.987184026843458e-22
0.032;0.0;1.0;-1.0;-1.3544488084317986e-24;-9.6e-05;0.0;-2.3957363248559597e-22;0.0;-2.3957363248559597e-22
0.036000000000000004;0.0;1.0;-1.0;-1.2069874475830018e-24;-9.6e-05;0.0;3.68653402121992e-23;0.0;3.68653402121992e-23
0.04000000000000001;0.0;1.0;-1.0;-6.767476678747107e-25;-9.6e-05;0.0;1.3255994492707276e-22;0.0;1.3255994492707276e-22
0.04400000000000001;0.0;1.0;-1.0;-2.012372201348719e-25;-9.6e-05;0.0;1.1887761193495972e-22;0.0;1.1887761193495972e-22
0.048000000000000015;-91.0;1.0;-1.0;-0.022850383642470034;-9.6e-05;0.0;-5.712595910617509;0.0;-5.712595910617509
0.05200000000000002;-1002.0;1.0;-92.0;-0.2277194484648686;-9.6e-05;-0.03158638364247003;-51.21726620559964;0.0;-51.21726620559964
0.05600000000000002;-5479.0;-125.0;-877.0;-1.1192872658441941;-0.03168238364247003;-0.2802290648223986;-222.8919543448314;0.0;-222.8919543448314
0.060000000000000026;-71582.0;-1372.0;-4107.0;-16.525877892565585;-0.3119114484648686;-1.2016478173793255;-3851.6476566803476;0.0;-3851.6476566803476
0.06400000000000003;-173290.0;-7426.0;-64156.0;-25.42695012830385;-1.513559265844194;-21.17129462672139;-2225.2680589345664;0.0;-2225.2680589345664
0.06800000000000003;-352497.0;-98165.0;-75125.0;-44.80164826636506;-22.684853892565584;-9.954096235738263;-4843.674534515303;0.0;-4843.674534515303
0.07200000000000004;-627638.0;-228720.0;-123777.0;-68.7854086561971;-32.63895012830385;-24.04529013806122;-5995.94009745801;-83.33333333333333;-5912.606764124677
0.07600000000000004;-1008915.0;-455456.0;-172182.0;-95.31908704582993;-56.684240266365066;-28.63064038983204;-6633.419597408207;-250.0;-6383.419597408207
0.08000000000000004;-1496121.0;-796715.0;-212200.0;-121.80165013134713;-85.3148806561971;-30.37540638963283;-6620.6407713793;-500.0;-6120.6407713793
0.08400000000000005;-2094790.0;-1259476.0;-236645.0;-149.6672141812758;-115.69028704582993;-28.829283085517204;-6966.391012482166;-666.6666666666666;-6299.7243458155
0.08800000000000005;-2828052.0;-1837554.0;-257236.0;-183.31531666787964;-144.51957013134714;-29.842300049928667;-8412.025621650962;-916.6666666666666;-7495.358954984295
0.09200000000000005;-3721389.0;-2535001.0;-293051.0;-223.334347070744;-174.3618701812758;-37.086342486603854;-10004.75760071609;-1083.3333333333333;-8921.424267382758
0.09600000000000006;-4800645.0;-3380793.0;-340596.0;-269.81389024015664;-211.44821266787966;-44.58335040286437;-11619.88579235316;-1416.6666666666667;-10203.219125686492
0.10000000000000006;-6086148.0;-4404919.0;-395726.0;-321.3758534836497;-256.031563070744;-51.77202316941259;-12890.49081087326;-1666.6666666666667;-11223.824144206594
0.10400000000000006;-7591230.0;-5636133.0;-450015.0;-376.27051731894716;-307.8035862401566;-56.77370724349305;-13723.66595882437;-2083.3333333333335;-11640.332625491035
0.10800000000000007;-9324325.0;-7094442.0;-496788.0;-433.2737226086312;-364.57729348364967;-59.384871835297474;-14250.801322421012;-2416.6666666666665;-11834.134655754346
0.11200000000000007;-11290766.0;-8790290.0;-534035.0;-491.6101869025457;-423.96216531894714;-60.57891728968406;-14584.116073478626;-2833.3333333333335;-11750.782740145292
0.11600000000000008;-13493591.0;-10728454.0;-562312.0;-550.7061951654135;-484.5410826086312;-61.051056293914485;-14774.002065716957;-3250.0;-11524.002065716957
0.12000000000000008;-15934146.0;-12910822.0;-582769.0;-610.1385887886569;-545.5921389025457;-61.059880262867864;-14858.098405810835;-3750.0;-11108.098405810835
0.12400000000000008;-18612711.0;-15337430.0;-596716.0;-669.6413941291202;-606.6520191654135;-60.77130562324328;-14875.70133511582;-4250.0;-10625.70133511582
0.12800000000000009;-21529068.0;-18007123.0;-605588.0;-729.0891505469751;-667.4233247886568;-60.3545173404633;-14861.939104463743;-4750.0;-10111.939104463743
0.1320000000000001;-24682880.0;-20918234.0;-610834.0;-788.4530467452581;-727.7778421291201;-59.951372417855055;-14840.974049570747;-5250.0;-9590.974049570747
0.1360000000000001;-28073889.0;-24069150.0;-613730.0;-847.7522234172849;-787.7292145469752;-59.64191219828297;-14824.79416800669;-5750.0;-9074.79416800669
0.1400000000000001;-31701960.0;-27458634.0;-615255.0;-907.0176744428667;-847.3711267452582;-59.44557667202673;-14816.362756395449;-6166.666666666667;-8649.696089728783
0.1440000000000001;-35567055.0;-31085900.0;-616060.0;-966.2736418423679;-906.8167034172849;-59.34273102558177;-14813.991849875294;-6583.333333333333;-8230.65851654196
0.1480000000000001;-39669186.0;-34950537.0;-616518.0;-1025.5327531378362;-966.1594344428667;-59.29993539950112;-14814.777823867076;-7083.333333333333;-7731.444490533742
0.1520000000000001;-44008380.0;-39052374.0;-616812.0;-1084.7984426718265;-1025.4593698423678;-59.28733529546844;-14816.422383497582;-7583.333333333333;-7233.089050164248
0.1560000000000001;-48584658.0;-43391360.0;-617020.0;-1144.0693593390915;-1084.7467051378362;-59.28565753399016;-14817.729166816263;-8000.0;-6817.729166816263
0.16000000000000011;-53398030.0;-47967489.0;-617169.0;-1203.342894282534;-1144.0323626718264;-59.285220667265094;-14818.383735860607;-8416.666666666666;-6401.717069193941
0.16400000000000012;-58448498.0;-52780759.0;-617271.0;-1262.6170205963838;-1203.3175833390915;-59.28332694344249;-14818.531578462454;-8916.666666666666;-5901.864911795788
0.16800000000000012;-63736061.0;-57831162.0;-617336.0;-1321.8907683334198;-1262.600910282534;-59.280366313849754;-14818.43693425901;-9416.666666666666;-5401.770267592346
0.17200000000000013;-69260717.0;-63118687.0;-617374.0;-1381.1639855058645;-1321.8812765963837;-59.27739573703616;-14818.304293111169;-9916.666666666666;-4901.6376264445025
0.17600000000000013;-75022465.0;-68643321.0;-617396.0;-1440.4369160317556;-1381.1586723334199;-59.27532917244457;-14818.232631472767;-10333.333333333334;-4484.899298139433
0.18000000000000013;-81021305.0;-74405057.0;-617408.0;-1499.70987358495;-1440.4340015058644;-59.27408252589112;-14818.239388298593;-10833.333333333334;-3984.9060549652595
0.18400000000000014;-87257238.0;-80403889.0;-617416.0;-1558.983082918535;-1499.7080840317556;-59.27372555319448;-14818.302333396276;-11250.0;-3568.302333396275
0.18800000000000014;-93730265.0;-86639816.0;-617422.0;-1618.2566507493575;-1558.98180958495;-59.27378533358501;-14818.391957705615;-11666.666666666666;-3151.7252910389484
0.19200000000000014;-100440387.0;-93112838.0;-617427.0;-1677.5306000307905;-1618.255594918535;-59.27404783082238;-14818.487320358257;-12166.666666666666;-2651.8206536915923
0.19600000000000015;-107387607.0;-99822956.0;-617431.0;-1736.8049162800667;-1677.5296427493574;-59.2743332814332;-14818.579062319031;-12583.333333333334;-2235.2457289856975
0.20000000000000015;-114571926.0;-106770171.0;-617436.0;-1796.0795807000143;-1736.8039760307906;-59.27479624927605;-14818.666104986904;-13000.0;-1818.666104986903
0.20400000000000015;-121993195.0;-113954486.0;-617440.0;-1855.3172522063678;-1796.0787722800667;-59.27504841994755;-14809.417876588384;-13250.0;-1559.417876588384
0.20800000000000016;-129650833.0;-121375901.0;-617294.0;-1914.4092647132534;-1855.3538207000142;-59.22365550635368;-14773.003126721393;-13583.333333333334;-1189.6697933880578
0.21200000000000016;-137543794.0;-129034210.0;-616623.0;-1973.240287744072;-1914.577476206368;-59.0275965068854;-14707.755757704661;-13833.333333333334;-874.4224243713265
0.21600000000000016;-145669413.0;-136928630.0;-615164.0;-2031.4046587635173;-1973.6050727132533;-58.6909590308187;-14541.092754861325;-14083.333333333334;-457.7594215279905
0.22000000000000017;-154020869.0;-145057814.0;-611599.0;-2087.8637855608226;-2032.296031744072;-57.82213101944535;-14114.78169932633;-14250.0;135.2183006736709
0.22400000000000017;-162586911.0;-153418286.0;-602583.0;-2141.5104490904932;-2090.1181627635174;-55.593590797305296;-13411.665882417652;-14500.0;1088.3341175823489
0.22800000000000017;-171353441.0;-162001133.0;-585778.0;-2191.632396371861;-2145.7117535608227;-52.03338352967057;-12530.486820341936;-14666.666666666666;2136.1798463247314
0.23200000000000018;-180303702.0;-170792113.0;-561328.0;-2237.5651342753185;-2197.7451370904932;-47.77474728136758;-11483.184475864391;-14750.0;3266.815524135609
0.23600000000000018;-189417970.0;-179774192.0;-529510.0;-2278.5667816921114;-2245.519884371861;-42.8782099034579;-10250.411854198206;-14750.0;4499.588145801795
0.24000000000000019;-198674150.0;-188927784.0;-490186.0;-2314.0450687019074;-2288.3980942753187;-37.22654341679254;-8869.57175244902;-14666.666666666666;5797.094914217647
0.2440000000000002;-208048713.0;-198230282.0;-443868.0;-2343.640602476623;-2325.6246376921113;-31.031759009796133;-7398.883443678869;-14500.0;7101.116556321131
0.2480000000000002;-217517286.0;-207656907.0;-391806.0;-2367.143064166754;-2356.6563967019074;-24.59758177471531;-5875.615422532746;-14333.333333333334;8457.717910800588
0.25200000000000017;-227056358.0;-217181922.0;-335364.0;-2384.768013305687;-2381.2539784766227;-18.084029690131047;-4406.237284733265;-14083.333333333334;9677.09604860007
0.25600000000000017;-236646262.0;-226779274.0;-277084.0;-2397.4758853407384;-2399.3380081667538;-12.030069138933413;-3176.968008762856;-13916.666666666666;10739.69865790381
0.2600000000000002;-246271705.0;-236424746.0;-221516.0;-2406.3604417400807;-2411.368077305687;-7.373344035051105;-2221.1390998355682;-13500.0;11278.860900164433
0.2640000000000002;-255920279.0;-246099711.0;-171994.0;-2412.1433409045;-2418.7414213407383;-4.1304443993421955;-1445.7247911047943;-13166.666666666666;11720.941875561872
0.2680000000000002;-265582293.0;-255791198.0;-129081.0;-2415.503541166917;-2422.8718657400805;-1.6632511644193073;-840.0500656042595;-12666.666666666666;11826.616601062407
0.2720000000000002;-275251074.0;-265489338.0;-92955.0;-2417.195138434143;-2424.5351169045;0.1078957375830214;-422.89931680647896;-12333.333333333334;11910.434016526855
0.2760000000000002;-284922493.0;-275187046.0;-64028.0;-2417.85470358436;-2424.4272211669168;1.085394732774148;-164.89128755426918;-11833.333333333334;11668.442045779066
0.2800000000000002;-294594309.0;-284880413.0;-42080.0;-2417.9537786129745;-2423.3418264341426;1.447442849782874;-24.768757153651677;-11416.666666666666;11391.897909513014
0.2840000000000002;-304265588.0;-294567990.0;-26319.0;-2417.8195624706523;-2421.8943835843597;1.4139809713851719;33.55403558055059;-10916.666666666666;10950.220702247218
0.2880000000000002;-313936170.0;-304249911.0;-15677.0;-2417.645477267535;-2420.4804026129746;1.1558481423221565;43.52130077927541;-10500.0;10543.521300779275
0.2920000000000002;-323606239.0;-313927209.0;-8961.0;-2417.517109957604;-2419.3245544706524;0.8188212031172952;32.09182748275907;-10000.0;10032.09182748276
0.2960000000000002;-333276043.0;-323601231.0;-5008.0;-2417.4508430549113;-2418.505733267535;0.5078553099310739;16.566725673214933;-9500.0;9516.566725673216
0.3000000000000002;-342945766.0;-333273222.0;-2821.0;-2417.430796539556;-2417.997877957604;0.27621890269256255;5.011628838815341;-9000.0;9005.011628838816
0.3040000000000002;-352615504.0;-342944108.0;-1658.0;-2417.434317288328;-2417.7216590549115;0.13169451535532062;-0.8801871930472771;-8500.0;8499.119812806952
0.3080000000000002;-362285282.0;-352614467.0;-1037.0;-2417.4443717553663;-2417.589964539556;0.056095251227816334;-2.5136167595292136;-8083.333333333333;8080.819716573804
0.3120000000000002;-371955092.0;-362284602.0;-680.0;-2417.4523448785726;-2417.5338692883283;0.024217532962211408;-1.993280801571018;-7666.666666666667;7664.673385865096
0.3160000000000002;-381624916.0;-371954640.0;-452.0;-2417.4560193004627;-2417.509651755366;0.01391487679347847;-0.9186054725205395;-7250.0;7249.0813945274795
0.32000000000000023;-391294743.0;-381624622.0;-294.0;-2417.4564016337745;-2417.4957368785726;0.011493578109821101;-0.09558332794767921;-6666.666666666667;6666.571083338719
0.32400000000000023;-400964564.0;-391294558.0;-185.0;-2417.4552850229247;-2417.484243300463;0.01008166668816557;0.27915271243728057;-6250.0;6250.279152712437
0.32800000000000024;-410634381.0;-400964454.0;-110.0;-2417.4540210888485;-2417.4741616337747;0.008316610849760764;0.31598351904449373;-5750.0;5750.3159835190445
0.33200000000000024;-420304194.0;-410634317.0;-64.0;-2417.453230186043;-2417.465845022925;0.0056799340763973305;0.19772570135501155;-5333.333333333333;5333.531059034688
0.33600000000000024;-429974006.0;-420304157.0;-37.0;-2417.4529855105447;-2417.4601650888485;0.0033829028052423382;0.06116887459484133;-4833.333333333333;4833.394502207928
0.34000000000000025;-439643819.0;-429973984.0;-22.0;-2417.453107175731;-2417.4567821860433;0.0016846754983816936;-0.03041629656763689;-4416.666666666667;4416.636250370099
0.34400000000000025;-449313633.0;-439643804.0;-15.0;-2417.4533817430483;-2417.455097510545;0.0005503348138518049;-0.06864182932986296;-3916.6666666666665;3916.5980248373367
0.34800000000000025;-458983448.0;-449313622.0;-11.0;-2417.4536645435264;-2417.454547175731;0.00010943268262053607;-0.0707001195223711;-3416.6666666666665;3416.595966547144
0.35200000000000026;-468653265.0;-458983439.0;-9.0;-2417.4538944209526;-2417.4544377430484;-9.080047811949044e-05;-0.057469356534056715;-3000.0;2999.942530643466
0.35600000000000026;-478323081.0;-468653257.0;-8.0;-2417.4540673465;-2417.4545285435265;-0.0001338774259238562;-0.04323138682593708;-2583.3333333333335;2583.2901019465075
0.36000000000000026;-487992899.0;-478323075.0;-6.0;-2417.4542037070382;-2417.4546624209524;1.9074452666245634e-05;-0.034090134590769594;-2166.6666666666665;2166.6325765320757
0.36400000000000027;-497662716.0;-487992893.0;-6.0;-2417.4543257419286;-2417.4546433465;-0.00013636053836307838;-0.030508722602462512;-1666.6666666666667;1666.6361579440643
0.36800000000000027;-507332535.0;-497662712.0;-4.0;-2417.4544477991494;-2417.454779707038;6.99651095601439e-05;-0.030514305194628832;-1333.3333333333333;1333.3028190281386
0.3720000000000003;-517002353.0;-507332530.0;-5.0;-2417.454575504435;-2417.4547097419286;-0.00021805722099088598;-0.03192632141235663;-1000.0;999.9680736785876
0.3760000000000003;-526672173.0;-517002349.0;-4.0;-2417.454708816767;-2417.4549277991496;-3.1705285437055863e-05;-0.0333280829636351;-750.0;749.9666719170364
0.3800000000000003;-536341992.0;-526672168.0;-5.0;-2417.4548454509163;-2417.454959504435;-0.00022931233206691104;-0.03415853734622942;-500.0;499.96584146265377
0.3840000000000003;-546011813.0;-536341988.0;-4.0;-2417.4549831150116;-2417.455188816767;-4.063414917254704e-05;-0.03441602382281417;-333.3333333333333;333.2989173095105
0.3880000000000003;-555681634.0;-546011808.0;-5.0;-2417.455120406216;-2417.4552294509162;-0.00023366409550362732;-0.034322801070629794;-166.66666666666666;166.63234386559603
0.3920000000000003;-565351455.0;-555681629.0;-5.0;-2417.455256821546;-2417.4554631150118;-0.00013729120428251917;-0.034103832490472996;-83.33333333333333;83.29922950084286
0.3960000000000003;-575021277.0;-565351451.0;-4.0;-2417.4553924120555;-2417.455600406216;-4.0415329749521334e-05;-0.03389762741790037;0.0;-0.03389762741790037
0.4000000000000003;-584691100.0;-575021273.0;-4.0;-2417.4555274277045;-2417.455640821546;-0.00013559050967160147;-0.033753912248357665;0.0;-0.033753912248357665
0.4040000000000003;-594360923.0;-584691096.0;-4.0;-2417.4556620992953;-2417.4557764120555;-0.00013501564899343066;-0.03366789769643219;0.0;-0.03366789769643219
0.4080000000000003;-604030747.0;-594360919.0;-4.0;-2417.455796558285;-2417.4559114277045;-0.00013467159078572877;-0.03361474739449477;83.33333333333333;-83.36694808072782
0.4120000000000003;-613700571.0;-604030743.0;-4.0;-2417.455930842741;-2417.4560460992952;-0.00013445898957797908;-0.0335711140451167;83.33333333333333;-83.36690444737845
0.4160000000000003;-623370396.0;-613700567.0;-4.0;-2417.456064936896;-2417.456180558285;-0.0001342844561804668;-0.03352353871832747;83.33333333333333;-83.36685687205166
0.4200000000000003;-633040221.0;-623370392.0;-4.0;-2417.4561988074574;-2417.456314842741;-0.0001340941548733099;-0.033467640378148644;0.0;-0.033467640378148644
0.4240000000000003;-642710047.0;-633040217.0;-4.0;-2417.4563324253736;-2417.456448936896;-0.00013387056151259458;-0.03340447904065513;0.0;-0.03340447904065513
0.4280000000000003;-652379873.0;-642710043.0;-4.0;-2417.456465772081;-2417.4565828074574;-0.00013361791616262053;-0.03333667689275899;0.0;-0.03333667689275899
0.43200000000000033;-662049700.0;-652379869.0;-4.0;-2417.4565988388495;-2417.4567164253735;-0.00013334670757103595;-0.033266692071265425;0.0;-0.033266692071265425
0.43600000000000033;-671719527.0;-662049696.0;-4.0;-2417.4567316220355;-2417.456849772081;-0.0001330667682850617;-0.033195796504514874;0.0;-0.033195796504514874
0.44000000000000034;-681389355.0;-671719523.0;-4.0;-2417.4568641193773;-2417.4569828388494;-0.0001327831860180595;-0.033124335459433496;0.0;-0.033124335459433496
0.44400000000000034;-691059183.0;-681389351.0;-4.0;-2417.4569963282374;-2417.4571156220354;-0.00013249734183773398;-0.03305221503069333;0.0;-0.03305221503069333
0.44800000000000034;-700729012.0;-691059179.0;-4.0;-2417.457128244469;-2417.4572481193773;-0.00013220886012277333;-0.032979057891679986;0.0;-0.032979057891679986
0.45200000000000035;-710398842.0;-700729008.0;-4.0;-2417.4572598632362;-2417.4573803282374;-0.00013191623156671994;-0.03290469180683431;0.0;-0.03290469180683431
0.45600000000000035;-720068672.0;-710398838.0;-4.0;-2417.4573911790408;-2417.457512244469;-0.00013161876722733723;-0.03282895113443374;0.0;-0.03282895113443374
0.46000000000000035;-729738503.0;-720068668.0;-4.0;-2417.4575221862;-2417.457643863236;-0.00013131580453773495;-0.032751789831309;0.0;-0.032751789831309
0.46400000000000036;-739408334.0;-729738499.0;-4.0;-2417.457652879468;-2417.4577751790407;-0.000131007159325236;-0.03267331692313746;0.0;-0.03267331692313746
0.46800000000000036;-749078165.0;-739408330.0;-4.0;-2417.457783253097;-2417.4579061862;-0.00013069326769254985;-0.03259340735439764;0.0;-0.03259340735439764
0.47200000000000036;-758747997.0;-749078162.0;-3.0;-2417.4579133017164;-2417.4580368794677;-3.4373629659967264e-05;-0.03251215480304381;0.0;-0.03251215480304381
0.47600000000000037;-768417830.0;-758747994.0;-3.0;-2417.458043020458;-2417.4580712530974;-0.00013004861921217525;-0.032429685347779014;0.0;-0.032429685347779014
0.48000000000000037;-778087663.0;-768417826.0;-4.0;-2417.4581724036047;-2417.4582013017166;-0.00022571874114873935;-0.032345786735277215;0.0;-0.032345786735277215
0.4840000000000004;-787757497.0;-778087659.0;-4.0;-2417.4583014462264;-2417.4584270204577;-0.00012938314694110886;-0.032260655416394;0.0;-0.032260655416394
0.4880000000000004;-797427331.0;-787757493.0;-4.0;-2417.4584301427944;-2417.4585564036047;-0.000129042621665576;-0.032174142006624606;0.0;-0.032174142006624606
0.4920000000000004;-807097166.0;-797427327.0;-4.0;-2417.458558487908;-2417.4586854462264;-0.00012869656802649843;-0.03208627833828359;0.0;-0.03208627833828359
