Zeit[sec];Sollposition[°];Istposition[°];Positionsschleppfehler[°];Sollgeschwindigkeit[°/s];Istgeschwindigkeit[°/s];Geschwindigkeitsdifferenz[°/s];Sollbeschleunigung[°/s*s];Istbeschleunigung[°/s*s];Beschleunigungsdifferenz[°/s*s]
0.0;0.0;5.0;-5.0;-0.0;-0.00021499999999999997;0.0;0.0;0.0;0.0
0.004;0.0;5.0;-5.0;-0.0;-0.00021499999999999997;0.0;0.0;0.0;0.0
0.008;0.0;5.0;-5.0;-0.0;-0.00021499999999999997;0.0;0.0;0.0;0.0
0.012;0.0;5.0;-5.0;-0.0;-0.00021499999999999997;0.0;0.0;0.0;0.0
0.016;0.0;5.0;-5.0;-0.0;-0.00021499999999999997;0.0;0.0;0.0;0.0
0.02;0.0;5.0;-5.0;-0.0;-0.00021499999999999997;0.0;0.0;0.0;0.0
0.024;0.0;5.0;-5.0;-0.0;-0.00021499999999999997;0.0;0.0;0.0;0.0
0.028;0.0;5.0;-5.0;-0.0;-0.00021499999999999997;0.0;0.0;0.0;0.0
0.032;0.0;5.0;-5.0;-0.0;-0.00021499999999999997;0.0;0.0;0.0;0.0
0.036000000000000004;0.0;5.0;-5.0;-0.0;-0.00021499999999999997;0.0;0.0;0.0;0.0
0.04000000000000001;0.0;5.0;-5.0;-0.0;-0.00021499999999999997;0.0;0.0;0.0;0.0
0.04400000000000001;0.0;5.0;-5.0;-0.0;-0.00021499999999999997;0.0;0.0;0.0;0.0
0.048000000000000015;0.0;5.0;-5.0;-0.0;-0.00021499999999999997;0.0;0.0;0.0;0.0
0.05200000000000002;5540.0;5.0;-5.0;1.3850662805901102;-0.00021499999999999997;0.0;346.26657014752755;0.0;346.26657014752755
0.05600000000000002;60752.0;5.0;5535.0;13.803117463509494;-0.00021499999999999997;1.6232862805901103;3104.512795729846;0.0;3104.512795729846
0.060000000000000026;332133.0;6497.0;54255.0;67.84512131049382;1.6230712805901102;14.513011182919385;13510.500961746082;0.0;13510.500961746082
0.06400000000000003;1226960.0;71041.0;261092.0;223.70673295814436;16.136082463509496;62.93599484698433;38965.402911912635;0.0;38965.402911912635
0.06800000000000003;3484073.0;387329.0;839631.0;564.2783839782214;79.07207731049382;180.73878864765052;85142.91275501926;250.0;84892.91275501926
0.07200000000000004;8165962.0;1426572.0;2057501.0;1170.4719857539403;259.81086595814435;392.94006102007705;151548.4004439297;916.6666666666666;150631.73377726306
0.07600000000000004;16532197.0;4037575.0;4128387.0;2091.5586905787322;652.7509269782214;695.241699775719;230271.67620619797;2583.3333333333335;227688.34287286465
0.08000000000000004;29861169.0;9429545.0;7102652.0;3332.243040644185;1347.9926267539404;1048.980099824792;310171.0875163632;5833.333333333333;304337.7541830298
0.08400000000000005;49316335.0;19017435.0;10843734.0;4863.79104982083;2396.9727265787324;1401.5508760654525;382887.00229416136;11416.666666666666;371470.3356274947
0.08800000000000005;75877136.0;34211529.0;15104806.0;6640.200125325177;3798.523602644185;1714.7741051766457;444102.2688760868;19666.666666666668;424435.6022094201
0.09200000000000005;110264264.0;56264719.0;19612417.0;8596.781456754;5513.2977078208305;1970.236348504347;489145.3328572059;30500.0;458645.3328572059
0.09600000000000006;152827192.0;86198855.0;24065409.0;10640.731482752013;7483.5340563251775;2148.0599874288237;510987.50649950304;43750.0;467237.50649950304
0.10000000000000006;203467309.0;124725231.0;28101961.0;12660.028596558865;9631.594043754001;2217.521761998012;504824.27845171286;58916.666666666664;445907.61178504623
0.10400000000000006;261646899.0;172121694.0;31345615.0;14544.896886476445;11849.115805752013;2158.7742358068517;471217.072479395;75416.66666666667;395800.40581272834
0.10800000000000007;326452148.0;228153254.0;33493645.0;16201.311559945;14007.890041558865;1977.2335799175798;414103.66836713866;92416.66666666667;321687.00170047197
0.11200000000000007;396691706.0;292093748.0;34358400.0;17559.888635492072;15985.123621476445;1693.599138468553;339644.26888676826;108916.66666666667;230727.60222010157
0.11600000000000008;471045325.0;362808639.0;33883067.0;18588.40391871065;17678.722759944998;1338.1377565470757;257128.82080464443;124166.66666666667;132962.15413797775
0.12000000000000008;548236873.0;438876081.0;32169244.0;19297.88610044987;19016.860516492074;954.8208942185775;177370.54543480463;137166.66666666666;40203.87876813797
0.12400000000000008;627166518.0;518762806.0;29474067.0;19732.410320622723;19971.68141071065;593.5895707392156;108631.05504321356;147583.33333333334;-38952.27829011978
0.12800000000000009;706980786.0;601023889.0;26142629.0;19953.565902045517;20565.270981449867;291.2723861728555;55288.895355698514;155083.33333333334;-99794.43797763484
0.1320000000000001;787101873.0;684450062.0;22530724.0;20030.27074435885;20856.543367622722;65.84366642279565;19176.210578333666;159916.66666666666;-140740.45608833298
0.1360000000000001;867214195.0;768139610.0;18962263.0;20028.079657158854;20922.387034045518;-76.73898068666676;-547.7717999992819;162416.66666666666;-162964.43846666595
0.1400000000000001;947202264.0;851522202.0;15691993.0;19997.016269276082;20845.64805335885;-142.81269719999545;-7765.846970693019;163083.33333333334;-170849.18030402635
0.1440000000000001;1027066711.0;934333543.0;12868721.0;19966.110866345934;20702.835356158856;-152.46408388277268;-7726.350732536957;162666.66666666666;-170393.0173992036
0.1480000000000001;1106852591.0;1016535028.0;10531683.0;19946.4689830938;20550.371272276083;-131.39803693014983;-4910.470813033498;161666.66666666666;-166577.13747970015
0.1520000000000001;1186605658.0;1098210920.0;8641671.0;19938.265883080345;20418.973235345933;-100.91239925213085;-2050.775003363924;160583.33333333334;-162634.10833669727
0.1560000000000001;1266355040.0;1179483163.0;7122495.0;19937.344465709513;20318.060836093802;-73.5276680134557;-230.35434270786936;159583.33333333334;-159813.6876760412
0.16000000000000011;1346112640.0;1260461295.0;5893745.0;19939.399120321737;20244.533168080347;-53.75766737083177;513.6636530560281;158833.33333333334;-158319.66968027732
0.16400000000000012;1425879365.0;1341224397.0;4888243.0;19941.680355061726;20190.775500709515;-41.181931387778604;570.3086849971442;158250.0;-157679.69131500286
0.16800000000000012;1505651689.0;1421822771.0;4056594.0;19943.0799870442;20149.593569321736;-33.479672260011284;349.90799561819586;157750.0;-157400.09200438182
0.17200000000000013;1585425862.0;1502287226.0;3364463.0;19943.54226424343;20116.113897061725;-28.362001017525472;115.56929980815767;157416.66666666666;-157301.0973668585
0.17600000000000013;1665199595.0;1582638233.0;2787629.0;19943.43236730575;20087.7518960442;-24.341584800768032;-27.474234419969434;157166.66666666666;-157194.14090108662
0.18000000000000013;1744972117.0;1662891874.0;2307721.0;19943.12958650891;20063.41031124343;-20.745940937678824;-75.69519921071333;157000.0;-157075.69519921072
0.18400000000000014;1824743581.0;1743062531.0;1909586.0;19942.865089052044;20042.664370305753;-17.422585796844942;-66.1243642161935;156750.0;-156816.1243642162
0.18800000000000014;1904514457.0;1823163498.0;1580083.0;19942.7180415338;20025.241784508908;-14.433126456864557;-36.76187956079957;156583.33333333334;-156620.09521289414
0.19200000000000014;1984285161.0;1903206732.0;1307725.0;19942.674908591613;20010.808658052043;-11.858441518241307;-10.78323554702365;156416.66666666666;-156427.44990221367
0.19600000000000015;2064055925.0;1983202532.0;1082629.0;19942.689990285562;19998.9502165338;-9.722260942187859;3.770423487367225;156083.33333333334;-156079.56290984596
0.20000000000000015;2143826818.0;2063159443.0;896482.0;19942.72241948595;19989.227955591614;-7.989239306050877;8.10730009652616;155333.33333333334;-155325.22603323683
0.20400000000000015;2223597818.0;2143084397.0;742421.0;19942.74914633987;19981.238716285563;-6.592193799613597;6.6817134802477085;153583.33333333334;-153576.6516198531
0.20800000000000016;2303368875.0;2222982983.0;614835.0;19942.763203040886;19974.64652248595;-5.459471146081341;3.5141752541676397;150250.0;-150246.48582474585
0.21200000000000016;2383139946.0;2302859731.0;509144.0;19942.766748565537;19969.187051339868;-4.530656298982649;0.8863811626724782;144583.33333333334;-144582.44695217066
0.21600000000000016;2462911009.0;2382718356.0;421590.0;19942.764737733414;19964.656395040885;-3.7612764753503143;-0.502708030580834;136333.33333333334;-136333.83604136392
0.22000000000000017;2542682058.0;2462561936.0;349073.0;19942.761307487668;19960.895118565535;-3.1202418321190635;-0.8575614365327056;125500.0;-125500.85756143654
0.22400000000000017;2622453096.0;2542393035.0;289023.0;19942.7586559538;19957.774876733416;-2.585580245748133;-0.6628834671573713;112250.0;-112250.66288346716
0.22800000000000017;2702224129.0;2622213792.0;239304.0;19942.757352261724;19955.189296487668;-2.1405685338686453;-0.32592301886325004;97000.0;-97000.32592301886
0.23200000000000018;2781995161.0;2702025986.0;198143.0;19942.7570954923;19953.0487279538;-1.7712266920752882;-0.0641923561488511;80416.66666666667;-80416.73085902282
0.23600000000000018;2861766195.0;2781831096.0;164065.0;19942.75735632802;19951.277501261724;-1.4656107694245293;0.06520893020933727;63416.666666666664;-63416.601457736455
0.24000000000000019;2941537229.0;2861630343.0;135852.0;19942.757721543057;19949.8118904923;-1.2128981642781582;0.09130375929089496;46916.666666666664;-46916.57536290737
0.2440000000000002;3021308265.0;2941424738.0;112491.0;19942.757985699478;19948.59899232802;-1.0041577849624446;0.06603910514968447;31750.0;-31749.93396089485
0.2480000000000002;3101079301.0;3021215117.0;93148.0;19942.758106425317;19947.59483454306;-0.831484843580256;0.030181459806044586;18666.666666666668;-18666.636485206862
0.25200000000000017;3180850337.0;3101002170.0;77131.0;19942.758122865005;19946.76334969948;-0.6886102741627838;0.004109921974304598;8250.0;-8249.995890078026
0.25600000000000017;3260621374.0;3180786468.0;63869.0;19942.758091346124;19946.074739425316;-0.5702495603109128;-0.007879720214987174;750.0;-750.007879720215
0.2600000000000002;3340392410.0;3260568485.0;52889.0;19942.75805303673;19945.504489865005;-0.47217151887889486;-0.009577348464517854;-4083.3333333333335;4083.323755984869
0.2640000000000002;3420163445.0;3340348614.0;43796.0;19942.758026986427;19945.032318346126;-0.39103730939677916;-0.006512575964734424;-6500.0;6499.993487424035
0.2680000000000002;3499934481.0;3420127179.0;36266.0;19942.75801599343;19944.64128103673;-0.3238160503024119;-0.002748249244177714;-7250.0;7249.997251750756
0.2720000000000002;3579705517.0;3499904448.0;30033.0;19942.758015290485;19944.317464986427;-0.26802999299616204;-0.00017573620425537229;-6833.333333333333;6833.333157597129
0.2760000000000002;3659476553.0;3579680645.0;24872.0;19942.75801896017;19944.04943499343;-0.22192370294578723;0.0009174209480988793;-5916.666666666667;5916.667584087615
0.2800000000000002;3739247589.0;3659455955.0;20598.0;19942.758022937414;19943.827511290485;-0.18377833031627233;0.0009943114491761662;-4833.333333333333;4833.334327644782
0.2840000000000002;3819018625.0;3739230529.0;17060.0;19942.758025483035;19943.64373296017;-0.152130022754136;0.0006364052751450799;-3750.0;3750.000636405275
0.2880000000000002;3898789661.0;3819004495.0;14130.0;19942.758026464566;19943.491602937414;-0.12598745437935577;0.0002453825800330378;-3000.0;3000.00024538258
0.2920000000000002;3978560697.0;3898777957.0;11704.0;19942.758026439446;19943.365615483035;-0.10431701846755459;-6.2800609157420695e-06;-2416.6666666666665;2416.6666603866056
0.2960000000000002;4058331733.0;3978551002.0;9695.0;19942.758026023177;19943.261298464568;-0.08638702512325835;-0.00010406711226096377;-2000.0;1999.9998959328877
0.3000000000000002;4138102768.0;4058323701.0;8032.0;19942.75802561387;19943.174911439444;-0.07150941626605345;-0.00010232633940177038;-1583.3333333333333;1583.3332310069939
0.3040000000000002;4217873804.0;4138096114.0;6654.0;19942.758025367;19943.10340202318;-0.05925440930514014;-6.171831046231091e-05;-1333.3333333333333;1333.3332716150228
0.3080000000000002;4297644840.0;4217868290.0;5514.0;19942.75802528205;19943.044147613873;-0.04902024687544326;-2.1236701286397874e-05;-1166.6666666666667;1166.6666454299655
0.3120000000000002;4377415876.0;4297640270.0;4570.0;19942.75802529337;19942.995127366998;-0.040592084944364615;2.8294380172155797e-06;-1000.0;1000.000002829438
0.3160000000000002;4457186912.0;4377412088.0;3788.0;19942.75802533989;19942.954535282053;-0.03362598868261557;1.1629708751570433e-05;-750.0;750.0000116297088
0.32000000000000023;4536957948.0;4457183771.0;3141.0;19942.758025381798;19942.92090929337;-0.027820953480841126;1.0477378964424133e-05;-666.6666666666666;666.6666771440456
0.32400000000000023;4616728984.0;4536955343.0;2605.0;19942.758025405303;19942.89308833989;-0.02304795809322968;5.876245268154889e-06;-500.0;500.00000587624527
0.32800000000000024;4696500020.0;4616726823.0;2161.0;19942.75802541227;19942.870040381797;-0.01909197649365524;1.7416823538951576e-06;-500.0;500.00000174168235
0.33200000000000024;4776271056.0;4696498226.0;1794.0;19942.75802541028;19942.850948405303;-0.01578099303515046;-4.974936018697917e-07;-333.3333333333333;333.3333328358397
0.33600000000000024;4856042091.0;4776269566.0;1490.0;19942.758025405303;19942.835167412268;-0.0130720019878936;-1.2441887520253658e-06;-333.3333333333333;333.33333208914456
0.34000000000000025;4935813127.0;4856040854.0;1237.0;19942.758025400828;19942.82209541028;-0.010879004978050943;-1.1186784831807017e-06;-250.0;249.99999888132152
0.34400000000000025;5015584163.0;4935812098.0;1029.0;19942.75802539909;19942.811216405302;-0.008944004472141387;-4.347384674474597e-07;-166.66666666666666;166.6666662319282
0.34800000000000025;5095355199.0;5015583307.0;856.0;19942.75802539859;19942.80227240083;-0.007439001739840023;-1.2460077414289117e-07;-166.66666666666666;166.66666654206588
0.35200000000000026;5175126235.0;5095354486.0;713.0;19942.75802539834;19942.79483339909;-0.006149000499135582;-6.275513442233205e-08;-83.33333333333333;83.3333332705782
0.35600000000000026;5254897271.0;5175125640.0;595.0;19942.75802539909;19942.78868439859;-0.005074000251624966;1.8735590856522322e-07;-166.66666666666666;166.66666685402257
0.36000000000000026;5334668307.0;5254896774.0;497.0;19942.758025399333;19942.78361039834;-0.004213999251078349;6.093614501878619e-08;-83.33333333333333;83.33333339426947
0.36400000000000027;5414439343.0;5334667891.0;416.0;19942.75802540033;19942.779396399088;-0.003482999756670324;2.4920154828578234e-07;-83.33333333333333;83.33333358253488
0.36800000000000027;5494210379.0;5414438994.0;349.0;19942.758025400082;19942.77591339933;-0.0028809989998990204;-6.184563972055912e-08;-83.33333333333333;83.33333327148769
0.3720000000000003;5573981414.0;5494210086.0;293.0;19942.758025399584;19942.77303240033;-0.0024080002476694062;-1.2460077414289117e-07;-83.33333333333333;83.33333320873255
0.3760000000000003;5653752450.0;5573981168.0;246.0;19942.75802539983;19942.770624400084;-0.0020210004986438435;6.184563972055912e-08;-83.33333333333333;83.33333339517897
0.3800000000000003;5733523486.0;5653752242.0;208.0;19942.758025399333;19942.768603399585;-0.0016339997528120875;-1.2460077414289117e-07;0.0;-1.2460077414289117e-07
0.3840000000000003;5813294522.0;5733523309.0;177.0;19942.758025400082;19942.766969399832;-0.001333000498561887;1.8735590856522322e-07;0.0;1.8735590856522322e-07
0.3880000000000003;5893065558.0;5813294371.0;151.0;19942.75802539909;19942.765636399334;-0.0011179992507095449;-2.482920535840094e-07;0.0;-2.482920535840094e-07
0.3920000000000003;5972836594.0;5893065429.0;129.0;19942.758025399584;19942.764518400083;-0.0009460009932809044;1.2369127944111824e-07;0.0;1.2369127944111824e-07
0.3960000000000003;6052607630.0;5972836483.0;111.0;19942.758025399584;19942.76357239909;-0.0007739995053270832;0.0;0.0;0.0
0.4000000000000003;6132378666.0;6052607534.0;96.0;19942.75802539983;19942.762798399584;-0.0006450000000768341;6.184563972055912e-08;-83.33333333333333;83.33333339517897
0.4040000000000003;6212149702.0;6132378582.0;84.0;19942.758025399584;19942.762153399584;-0.0005159997526789084;-6.184563972055912e-08;-83.33333333333333;83.33333327148769
0.4080000000000003;6291920737.0;6212149628.0;74.0;19942.758025399584;19942.76163739983;-0.0004300002474337816;0.0;-83.33333333333333;83.33333333333333
0.4120000000000003;6371691773.0;6291920672.0;65.0;19942.758025399584;19942.761207399584;-0.00038700000004610047;0.0;0.0;0.0
0.4160000000000003;6451462809.0;6371691715.0;58.0;19942.75802539983;19942.760820399584;-0.0003010000000358559;6.184563972055912e-08;0.0;6.184563972055912e-08
0.4200000000000003;6531233845.0;6451462757.0;52.0;19942.758025399333;19942.760519399584;-0.00025799975264817476;-1.2460077414289117e-07;0.0;-1.2460077414289117e-07
0.4240000000000003;6611004881.0;6531233798.0;47.0;19942.758025399584;19942.76026139983;-0.00021500049842870794;6.275513442233205e-08;0.0;6.275513442233205e-08
0.4280000000000003;6690775917.0;6611004838.0;43.0;19942.75802539983;19942.760046399333;-0.0001719997489999514;6.184563972055912e-08;0.0;6.184563972055912e-08
0.43200000000000033;6770546953.0;6690775877.0;40.0;19942.758025399584;19942.759874399584;-0.00012899975263280794;-6.184563972055912e-08;0.0;-6.184563972055912e-08
0.43600000000000033;6850317989.0;6770546915.0;38.0;19942.75802539983;19942.75974539983;-8.600024739280343e-05;6.184563972055912e-08;0.0;6.184563972055912e-08
0.44000000000000034;6930089025.0;6850317953.0;36.0;19942.758025399584;19942.759659399584;-8.599975262768567e-05;-6.184563972055912e-08;0.0;-6.184563972055912e-08
0.44400000000000034;7009860060.0;6930088991.0;34.0;19942.75802539909;19942.75957339983;-8.600024739280343e-05;-1.2369127944111824e-07;0.0;-1.2369127944111824e-07
0.44800000000000034;7089631096.0;7009860028.0;32.0;19942.75802539983;19942.759487399584;-8.600049477536231e-05;1.8553691916167736e-07;0.0;1.8553691916167736e-07
0.45200000000000035;7169402132.0;7089631065.0;31.0;19942.75802540033;19942.75940139909;-4.299925785744563e-05;1.2460077414289117e-07;0.0;1.2460077414289117e-07
0.45600000000000035;7249173168.0;7169402102.0;30.0;19942.758025399584;19942.75935839983;-4.29995016020257e-05;-1.864464138634503e-07;0.0;-1.864464138634503e-07
0.46000000000000035;7328944204.0;7249173139.0;29.0;19942.75802539909;19942.75931540033;-4.300074579077773e-05;-1.2369127944111824e-07;0.0;-1.2369127944111824e-07
0.46400000000000036;7408715240.0;7328944176.0;28.0;19942.75802539983;19942.759272399584;-4.300049477024004e-05;1.8553691916167736e-07;0.0;1.8553691916167736e-07
0.46800000000000036;7488486276.0;7408715212.0;28.0;19942.758025398838;19942.75922939909;7.421476766467094e-10;-2.482920535840094e-07;0.0;-2.482920535840094e-07
0.47200000000000036;7568256567.0;7488486248.0;28.0;19942.571775956596;19942.75922939983;-9.931682143360376e-10;-46.56236056052876;0.0;-46.56236056052876
0.47600000000000037;7648021296.0;7568257284.0;-717.0;19941.181298537278;19942.75922939884;-0.21828444224229315;-347.6193548294759;0.0;-347.6193548294759
0.48000000000000037;7727765858.0;7648027447.0;-6151.0;19936.139689849068;19942.540944956596;-1.6241394193166343;-1260.4021720526362;0.0;-1260.4021720526362
0.4840000000000004;7807451650.0;7727791114.0;-25256.0;19921.447062680334;19940.91680553728;-5.86312368821018;-3673.156792183363;0.0;-3673.156792183363
0.4880000000000004;7886971570.0;7807531328.0;-79678.0;19879.97907314047;19935.05368184907;-17.03277316873573;-10366.997384966453;0.0;-10366.997384966453
0.4920000000000004;7966076703.0;7887203411.0;-231841.0;19776.28221009866;19918.020908680333;-48.010998539866705;-25924.21576045217;-83.33333333333333;-25840.88242711884
0.4960000000000004;8044315694.0;7966683450.0;-606747.0;19559.746910419268;19870.009910140467;-119.8178210418082;-54133.82491984794;-250.0;-53883.82491984794
0.5000000000000003;8121003232.0;8045684218.0;-1368524.0;19171.883394724984;19750.19208909866;-249.29171067939023;-96965.87892357093;-750.0;-96215.87892357093
0.5040000000000003;8195204055.0;8123687819.0;-2684587.0;18550.20510258215;19500.90037841927;-444.45422469428377;-155419.57303570872;-1833.3333333333333;-153586.23970237537
0.5080000000000003;8265756833.0;8199913603.0;-4709548.0;17638.193455891625;19056.446153724984;-708.7516151428354;-228002.91167263093;-4000.0;-224002.91167263093
0.5120000000000003;8331381968.0;8273304381.0;-7547548.0;16406.283171076233;18347.69453858215;-1034.0456466905234;-307977.5712038481;-7583.333333333333;-300394.2378705148
